participant_number,subexperiment_number,O2Hb_highest_peak,O2Hb_lowest_peak,O2Hb_average_peak,O2Hb_difference_peak,O2Hb_auc,O2Hb_highest_peak_trial_1,O2Hb_highest_peak_trial_2,O2Hb_highest_peak_trial_3,O2Hb_highest_peak_trial_4,O2Hb_lowest_peak_trial_1,O2Hb_lowest_peak_trial_2,O2Hb_lowest_peak_trial_3,O2Hb_lowest_peak_trial_4,O2Hb_average_peak_trial_1,O2Hb_average_peak_trial_2,O2Hb_average_peak_trial_3,O2Hb_average_peak_trial_4,O2Hb_difference_peak_trial_1,O2Hb_difference_peak_trial_2,O2Hb_difference_peak_trial_3,O2Hb_difference_peak_trial_4,O2Hb_auc_peak_trial_1,O2Hb_auc_peak_trial_2,O2Hb_auc_peak_trial_3,O2Hb_auc_peak_trial_4
2.0,1.0,0.016712155549419978,-0.023325425279151452,-7.942690291719259e-05,0.04003758082857143,-0.0023290808098383464,0.016712155549419978,0.00999722884941998,0.011089454149419978,0.006186862506562837,-0.023325425279151452,-0.014101490122008592,-0.008317473136294306,-0.004494547507722877,0.0,0.0,0.0,0.0,0.04003758082857143,0.02409871897142857,0.019406927285714283,0.010681410014285714,-0.021438345197846962,-0.012323261638612101,0.020849453555156418,0.013552406137238689
2.0,2.0,0.056554391006562836,-0.012456263564865734,0.00019418951040624255,0.06901065457142858,0.004424250339846834,0.056554391006562836,0.009049697292277125,0.006467077435134265,0.011557139863705695,-0.012456263564865734,-0.007904506279151449,-0.005547421050580019,-0.007889619307722875,0.0,0.0,0.0,0.0,0.06901065457142858,0.016954203571428572,0.012014498485714283,0.01944675917142857,0.01952276328141672,-0.017153243292846065,-0.013185255884445496,-0.0016231127688875122
2.0,3.0,0.05952094143513426,-0.01544456687915145,6.059205472945506e-06,0.07496550831428571,0.006015675262312597,0.019090580063705696,0.01247344800656284,0.016751036863705694,0.05952094143513426,-0.010652512264865733,-0.007351268264865734,-0.01544456687915145,-0.014632693422008593,0.0,0.0,0.0,0.0,0.02974309232857143,0.019824716271428573,0.03219560374285714,0.07415363485714285,-0.017733901315866798,-0.003167599469943449,-0.02488358632164936,0.048046262506983045
2.0,4.0,0.03870671829227712,-0.021609589507722876,4.183414447095567e-05,0.060316307799999996,0.0064815138900608735,0.012071313006562836,0.018663686292277125,0.03870671829227712,0.03204787929227713,-0.008128111536294306,-0.01054485545058002,-0.01077240742200859,-0.021609589507722876,0.0,0.0,0.0,0.0,0.02019942454285714,0.029208541742857145,0.04947912571428571,0.053657468800000004,-0.010314162310069437,-0.010814541550985214,0.0022789772364677115,-0.021487854515906582
2.0,5.0,0.036959321863705694,-0.03480498799343717,-0.00011791403046493291,0.07176430985714286,-0.019628118258080394,0.03141319089227712,0.036959321863705694,0.029712071892277123,0.018631506863705693,-0.015852114993437163,-0.017534150279151447,-0.03480498799343717,-0.01347693827915145,0.0,0.0,0.0,0.0,0.04726530588571429,0.054493472142857144,0.0645170598857143,0.03210844514285714,-0.033483813360678655,-0.02699495475287307,-0.004759170587392494,-0.04243470889687707
2.0,6.0,0.022419385720848554,-0.02751383813629431,-0.00019724202805788905,0.04993322385714287,-0.006286447571356657,0.02006510572084855,0.02208383629227712,0.022419385720848554,0.01429773007799141,-0.02751383813629431,-0.012799386764865734,-0.017426249707722878,-0.023441696279151446,0.0,0.0,0.0,0.0,0.04757894385714286,0.03488322305714286,0.03984563542857143,0.037739426357142856,-0.020932381081272003,-0.00964334673824577,-0.008082757200737894,-0.024480240748135765
2.0,7.0,0.022061000577991405,-0.05714964613629431,-0.0003208918042982044,0.07921064671428571,-0.041158361693190995,0.022061000577991405,0.010109161463705694,0.015528332635134267,0.009641771349419983,-0.05714964613629431,-0.008279787593437163,-0.011713622693437162,-0.008666221593437162,0.0,0.0,0.0,0.0,0.07921064671428571,0.018388949057142855,0.02724195532857143,0.018307992942857145,-0.015385735011001503,-0.01550425045789457,0.005131156882028606,-0.0386569724146453
2.0,8.0,0.0773503295779914,-0.016459277707722878,-0.0002745880679384801,0.09380960728571427,-0.10277411434012705,0.011264877877991407,0.006815956392277123,0.0773503295779914,0.03504908214941998,-0.009390783749151449,-0.00992159055058002,-0.008578853407722877,-0.011811847422008595,0.0,0.0,0.0,0.0,0.020655661627142857,0.016737546942857142,0.08592918298571428,0.046860929571428574,-0.04114066746896419,-0.015262025069874521,0.0517942591628494,0.005050130259016707
3.0,1.0,0.04982893521026895,-0.028836637956397713,0.0006062774951034188,0.07866557316666667,0.0006790235634853425,0.042070663043602276,0.04982893521026895,0.03276319704360229,0.020884854543602286,-0.028836637956397713,-0.014498363956397713,-0.02133245545639771,-0.013309494123064381,0.0,0.0,0.0,0.0,0.07090730099999999,0.06432729916666667,0.0540956525,0.034194348666666666,-0.03469132801112093,0.04150573628813015,-0.026370953082743027,-0.01363171153022276
3.0,2.0,0.03195982821026896,-0.028652835789731046,-0.0004974089986589767,0.060612664000000004,0.0039950972453005225,0.03195982821026896,0.016623654543602286,0.013313229876935617,0.02907820701026895,-0.022325239789731045,-0.020893228789731048,-0.02289056268973105,-0.028641067456397717,0.0,0.0,0.0,0.0,0.054285068000000006,0.037516883333333334,0.03620379256666667,0.057719274466666665,-0.01390367747780906,0.026226681368623987,-0.06471722704701756,0.04817880478106127
3.0,3.0,0.029250302210268957,-0.02992660062306438,0.00011641922143287525,0.059176902833333336,-0.0031588727544669126,0.029250302210268957,0.022803244710268955,0.017913658043602287,0.010752756710268952,-0.017222609956397714,-0.013280847289731048,-0.008714046456397714,-0.02992660062306438,0.0,0.0,0.0,0.0,0.04647291216666667,0.036084092000000005,0.026627704500000002,0.04067935733333333,0.011215581231407888,-0.014694297859175864,0.009020066925917601,-0.05374777427259951
3.0,4.0,0.020888236710268956,-0.02713638162306438,-0.0004346501122193014,0.04802461833333334,-0.03593361022849962,0.014913610710268954,0.007629487376935619,0.016640947876935618,0.020888236710268956,-0.02713638162306438,-0.01577639178973105,-0.008852452956397713,-0.009163305456397713,0.0,0.0,0.0,0.0,0.042049992333333334,0.023405879166666668,0.025493400833333332,0.030051542166666667,-0.04237686161507851,-0.029202887540344565,-0.01423024108060163,0.002598083955083959
3.0,5.0,0.035199233043602285,-0.02024537762306438,8.828857437626335e-05,0.055444610666666665,-0.0181190879459788,0.035199233043602285,0.020168187043602286,0.011640093543602285,0.018221183543602287,-0.02024537762306438,-0.00892550712306438,-0.011836198456397712,-0.015348299456397714,0.0,0.0,0.0,0.0,0.055444610666666665,0.029093694166666666,0.023476291999999996,0.033569483,-0.01684097551745925,-0.00498845625158733,-0.03673524887104512,-0.024219333052609506
3.0,6.0,0.015639060043602285,-0.014652784456397715,-9.628621783240544e-05,0.030291844499999998,-0.022206568918235005,0.01399032537693562,0.011492282210268955,0.015639060043602285,0.007260145210268953,-0.014652784456397715,-0.010060875456397713,-0.0067423997897310475,-0.010354420956397714,0.0,0.0,0.0,0.0,0.028643109833333333,0.02155315766666667,0.022381459833333332,0.017614566166666668,-0.038689129896686374,0.002519023032681457,0.015259469853510068,-0.004420145480383872
3.0,7.0,0.03149011946026895,-0.027323088789731043,0.0001649550633239932,0.05881320825,0.03308391467620631,0.03149011946026895,0.014372128543602286,0.019845086043602286,0.010754937543602287,-0.027323088789731043,-0.008952130456397714,-0.009117611289731048,-0.009405765456397715,0.0,0.0,0.0,0.0,0.05881320825,0.023324259,0.028962697333333336,0.020160703000000002,-0.0031477047388583923,-0.003953798542161213,0.003988067195396853,0.010235260332566002
3.0,8.0,0.04301389471026895,-0.027136219456397714,-2.914032170563e-06,0.07015011416666667,0.013490044469667561,0.019308724043602284,0.04301389471026895,0.03729636571026895,0.020722860710268954,-0.027136219456397714,-0.01939051745639771,-0.025475114456397715,-0.01647287662306438,0.0,0.0,0.0,0.0,0.0464449435,0.06240441216666666,0.06277148016666667,0.03719573733333333,-0.0479325473188751,-0.015609531056318557,-0.003544255013921596,0.016192346693752604
4.0,1.0,0.1510828619534992,-0.11217327679650081,0.00043548572403597337,0.26325613875000003,-0.23572844788052993,0.10772067070349918,0.10987614070349917,0.07743856695349918,0.05889494732849919,-0.1078958555465008,-0.07755056929650081,-0.11217327679650081,-0.06918731054650082,0.0,0.0,0.0,0.0,0.21561652625,0.18742671,0.18961184375,0.128082257875,-0.005944207574298241,0.04267794336915716,-0.2925619969528369,-0.06577256851666799
4.0,2.0,0.09837793195349918,-0.1412273017965008,-0.0009330656893785006,0.23960523374999998,0.08216777594910467,0.06727470695349919,0.0981172182034992,0.09243973820349918,0.04738094432849919,-0.1054185305465008,-0.09204219179650082,-0.1412273017965008,-0.08465438179650081,0.0,0.0,0.0,0.0,0.17269323749999999,0.19015941000000003,0.23366704,0.132035326125,-0.05446818255777061,0.09838502329877766,-0.0972666948118317,-0.09687130689368781
4.0,3.0,0.15685635945349918,-0.1470387230465008,-0.0007652490734410988,0.30389508249999997,-0.10342185343553195,0.1185489994534992,0.11604103320349918,0.15685635945349918,0.06107310732849918,-0.09913679554650083,-0.08047022929650083,-0.1470387230465008,-0.06423582054650082,0.0,0.0,0.0,0.0,0.21768579500000002,0.1965112625,0.30389508249999997,0.125308927875,-0.278171113536473,0.044883176072263636,0.2548824779672023,-0.11466467603450062
4.0,4.0,0.13481058445349917,-0.13482432929650082,-0.0019709068044296086,0.26963491375,-0.05902303917393237,0.08246150820349918,0.13481058445349917,0.09179722570349919,0.11126064820349918,-0.08923083804650081,-0.13482432929650082,-0.09163442929650081,-0.12190442179650082,0.0,0.0,0.0,0.0,0.17169234625,0.26963491375,0.183431655,0.23316507,-0.20760534523797022,0.1189356756740311,-0.1968733678064376,-0.017942040110673213
4.0,5.0,0.08524942445349919,-0.12269475054650082,-0.0009003950880681468,0.207944175,0.061559998490776285,0.08524942445349919,0.07095570557849919,0.0685601719534992,0.08434345820349919,-0.08832802554650081,-0.049406882796500816,-0.07871861054650083,-0.12269475054650082,0.0,0.0,0.0,0.0,0.17357745,0.120362588375,0.14727878250000004,0.20703820875,-0.09012707178169663,0.08172947282403809,-0.00027299350648296583,0.06150541397918369
4.0,6.0,0.17042438320349917,-0.11663260804650082,0.0011391191665451306,0.28705699125,0.30837530222863757,0.17042438320349917,0.05706866695349918,0.04827038945349918,0.10482771945349917,-0.11663260804650082,-0.04858812304650082,-0.07394331804650081,-0.04856407579650082,0.0,0.0,0.0,0.0,0.28705699125,0.10565679,0.12221370749999999,0.15339179525,0.2600050750479428,-0.008611070807257926,-0.017619940719884056,0.1541493673322915
4.0,7.0,0.0955786794534992,-0.08623311429650082,-0.0006382987152595552,0.18181179375,0.12202782722955013,0.0955786794534992,0.06401807492849919,0.07695661820349918,0.06956420195349919,-0.03825133804650081,-0.06383442179650083,-0.08623311429650082,-0.04996368054650082,0.0,0.0,0.0,0.0,0.1338300175,0.12785249672500001,0.16318973250000002,0.11952788250000002,0.08294800726045129,-0.03145393290043369,0.05789970409951692,-0.009825945405631628
4.0,8.0,0.1278821807034992,-0.08683390304650082,-0.0014452293881199066,0.21471608375,-0.1033325137417411,0.06950650570349919,0.1278821807034992,0.0789627842034992,0.09145624445349919,-0.07435053304650081,-0.08683390304650082,-0.08058609929650082,-0.051887643046500814,0.0,0.0,0.0,0.0,0.14385703875,0.21471608375,0.15954888350000002,0.1433438875,-0.13919195714913435,-0.03595314934962429,-0.04524337975195425,-0.005572702449649414
10.0,1.0,0.3588574125,-0.250749075,0.042488772014273896,0.6096064875,4.721974463286301,0.32413886249999996,0.16916035250000003,0.21726202125000002,0.22789332499999998,-0.250749075,-0.13744224625,-0.11253047625,-0.11733413625,0.0,0.0,0.0,0.0,0.5748879375,0.30660259875000007,0.3297924975,0.34522746125,1.5506891570930224,1.3118380152288418,0.5508853223607983,0.8616278313436538
10.0,2.0,0.18690197375,-0.1553605125,0.042929758758345295,0.34226248625,3.9711160855831613,0.18690197375,0.17612427874999997,0.18602736125,0.13099665624999998,-0.06441935675,-0.11779072375,-0.12868505375,-0.03777803462499999,0.0,0.0,0.0,0.0,0.2513213305,0.29391500249999997,0.314712415,0.16877469087499997,0.9674101208180019,1.107583578546815,1.3041673529557407,0.6713683165500979
10.0,3.0,0.32394195000000003,-0.17101732999999997,0.041853866338845705,0.49495928,7.607308742941736,0.32394195000000003,0.19104694000000003,0.22127358749999998,0.27928140125,-0.17101732999999997,-0.06341776625,-0.1173330225,-0.13242133,0.0,0.0,0.0,0.0,0.49495928,0.25446470625,0.33860661,0.41170273125,1.8648232147282047,1.7325437781573005,1.9391557997421969,1.9368957985875301
10.0,4.0,0.32470125999999994,-0.16822593749999998,0.04172947932740789,0.4929271974999999,5.186915132126575,0.21542569,0.17713917499999995,0.32470125999999994,0.14445008125,-0.11584705749999999,-0.16822593749999998,-0.09561973,-0.0818619975,0.0,0.0,0.0,0.0,0.3312727475,0.3453651124999999,0.42032098999999995,0.22631207875,0.6878555380132425,1.086634115020395,1.7924574312184314,1.3053499958870056
10.0,5.0,0.47937778750000004,-0.3217113,0.04363342966193769,0.8010890875000001,6.543342346824396,0.19460601000000002,0.39025116249999997,0.28524674250000004,0.18822498374999996,-0.10431276250000002,-0.09254522750000002,-0.3217113,-0.07444610574999999,0.0,0.0,0.0,0.0,0.29891877250000004,0.48279638999999996,0.6069580425000001,0.26267108949999995,1.9888116332001153,1.5533349796689744,1.1118261920103352,1.2704322976450015
10.0,6.0,0.26590386875,-0.165617845,0.04139325513065663,0.43152171375000004,5.000702198700581,0.26590386875,0.22851245875,0.133319995,0.15654563124999998,-0.110474805,-0.03806262125,-0.05539543999999999,-0.15640141375,0.0,0.0,0.0,0.0,0.37637867375,0.26657508,0.188715435,0.312947045,1.5320060494099117,1.312921761949523,0.7408937850712133,1.0565260915429513
10.0,7.0,0.34950282499999996,-0.157071925,0.04162781103575606,0.50657475,4.3157053160281915,0.34950282499999996,0.21485017000000003,0.20653549625,0.17279971000000002,-0.08357989625,-0.14519054725,-0.11679348625000001,-0.157071925,0.0,0.0,0.0,0.0,0.43308272124999997,0.36004071725000003,0.32332898250000003,0.32987163500000005,0.9607832403888107,0.26945348737394326,1.3989616217076768,0.9603139454477292
10.0,8.0,0.38838310125,-0.17727750499999997,0.0436958154277266,0.5656606062499999,5.62226923003717,0.18578899875000002,0.38838310125,0.2089543,0.1633271475,-0.06174361945000001,-0.051383342,-0.17727750499999997,-0.12558546125,0.0,0.0,0.0,0.0,0.24753261820000003,0.43976644324999997,0.386231805,0.28891260875,0.6406816220965508,1.1528621165440276,1.7420834609422067,1.5429122141918763
15.0,1.0,0.1743711255188091,-0.11438379190976233,0.0010436548270408054,0.2887549174285714,0.1562865865224966,0.055405643275951946,0.04779760909023766,0.03685866794738052,0.1743711255188091,-0.08816864062404806,-0.05664478619547664,-0.08782623405261948,-0.11438379190976233,0.0,0.0,0.0,0.0,0.1435742839,0.1044423952857143,0.124684902,0.2887549174285714,0.11387357661867342,0.019320567523972543,0.1328803026437146,0.1090868709552915
15.0,2.0,0.12126748511880907,-0.08202683175261948,0.0006825446815333346,0.20329431687142854,-0.025941513756439126,0.038477172661666226,0.04021458666166623,0.05702303937595195,0.12126748511880907,-0.08202683175261948,-0.058606129766905206,-0.06615240833833377,-0.05506015619547662,0.0,0.0,0.0,0.0,0.1205040044142857,0.09882071642857143,0.12317544771428572,0.1763276413142857,0.046494701800823185,-0.029854283150688624,0.028380867562181215,-0.07321760681536865
15.0,3.0,0.20259637694738047,-0.1152942284811909,0.0005018439398983626,0.3178906054285714,0.10666273323585121,0.07223801551880908,0.03645907890452337,0.09362073551880909,0.20259637694738047,-0.07445663560976234,-0.04526863562404805,-0.10717984533833376,-0.1152942284811909,0.0,0.0,0.0,0.0,0.14669465112857144,0.08172771452857142,0.20080058085714286,0.3178906054285714,0.06563721034230302,-0.022726978929257433,0.08918281621635263,-0.04624608934293453
15.0,4.0,0.15461746980452334,-0.0869568747669052,-0.0005425129642359118,0.24157434457142854,-0.034605149957941006,0.09797412409023766,0.04121367809023767,0.15461746980452334,0.08967982880452337,-0.08443594619547663,-0.06479545848119092,-0.0869568747669052,-0.08041796762404807,0.0,0.0,0.0,0.0,0.1824100702857143,0.10600913657142859,0.24157434457142854,0.17009779642857142,-0.15472239829648146,-0.0399639653263173,0.14061585534020082,0.04405125363465465
15.0,5.0,0.18240399409023764,-0.08205028205261948,0.0007724378990544813,0.2644542761428571,0.1573764733165782,0.05195993309023766,0.037110420233094805,0.18240399409023764,0.04090449394738053,-0.05537209648119091,-0.033661420766905197,-0.08205028205261948,-0.05276957348119092,0.0,0.0,0.0,0.0,0.10733202957142857,0.070771841,0.2644542761428571,0.09367406742857146,-0.007669588695064483,-0.06177202018505994,0.1100895984601313,-0.053790361738988546
15.0,6.0,0.08672879394738052,-0.07930328462404805,-0.000749008218692583,0.16603207857142857,-0.04020701133939884,0.04452566251880908,0.08672879394738052,0.032738252375951946,0.028117122090237662,-0.07930328462404805,-0.06926888008119092,-0.0512623751811909,-0.07553236333833377,0.0,0.0,0.0,0.0,0.12382894714285714,0.15599767402857145,0.08400062755714285,0.10364948542857143,-0.16294250519962214,0.023165284704937915,0.06169468203627761,-0.010201339618173648
15.0,7.0,0.20867086609023763,-0.10919159733833375,-0.0005975501549889322,0.3178624634285714,0.12916113160486348,0.05768582166166623,0.20867086609023763,0.044876173090237656,0.04341953966166623,-0.09699215076690519,-0.09348840776690519,-0.10919159733833375,-0.04822483843833377,0.0,0.0,0.0,0.0,0.15467797242857143,0.3021592738571428,0.1540677704285714,0.0916443781,-0.020115790435636022,0.20207349217903617,-0.1734339103523542,0.100356964417501
15.0,8.0,0.21735813409023766,-0.14047484290976234,0.0013506871611266753,0.357832977,0.22429656318956948,0.21735813409023766,0.027098032090237655,0.07426775894738051,0.15361105266166625,-0.14047484290976234,-0.02616928390976234,-0.06910839862404806,-0.11652239733833378,0.0,0.0,0.0,0.0,0.357832977,0.053267315999999995,0.14337615757142858,0.27013345,0.13362895181637435,0.018588585148248724,-0.08818914840184523,0.014279805190016627
16.0,1.0,0.12722525826232087,-0.08084061173767916,0.0004870534892590804,0.20806587000000004,0.052671069097046636,0.10724601826232084,0.04007372159565418,0.06909883126232085,0.12722525826232087,-0.06621145140434581,-0.02966266075434582,-0.08084061173767916,-0.047317943404345815,0.0,0.0,0.0,0.0,0.17345746966666664,0.06973638235,0.149939443,0.17454320166666668,0.020905854551897005,0.012969891936705148,-0.17913370487311586,0.12922032861169114
16.0,2.0,0.12662139826232086,-0.0883915350710125,-0.0008050209844558694,0.21501293333333335,-0.05772410159338531,0.12662139826232086,0.037996315595654175,0.04692857992898752,0.031043573262320847,-0.0883915350710125,-0.0650255100710125,-0.03454863173767916,-0.039578136737679154,0.0,0.0,0.0,0.0,0.21501293333333335,0.10302182566666668,0.08147721166666667,0.07062171,0.033125523157980744,-0.10514120769507762,0.06010006333888537,-0.0910343419330431
16.0,3.0,0.06251726776232085,-0.07156880173767914,-0.0009211632646539604,0.1340860695,-0.02865091140503702,0.06251726776232085,0.04644922159565418,0.046741893262320845,0.04484324492898751,-0.07156880173767914,-0.05299390673767915,-0.05364676507101249,-0.05280557007101249,0.0,0.0,0.0,0.0,0.1340860695,0.09944312833333332,0.10038865833333332,0.097648815,-0.14685065632223845,0.056282365168822235,-0.04333847101495569,0.02051695387201613
16.0,4.0,0.06279057159565417,-0.05496130890434583,0.0003285241977012237,0.11775188049999999,0.01865978006160375,0.04496589826232084,0.05162111259565419,0.06279057159565417,0.03544922042898751,-0.017758224737679153,-0.05496130890434583,-0.043997216737679146,-0.022283026571012485,0.0,0.0,0.0,0.0,0.06272412299999999,0.10658242150000002,0.10678778833333331,0.057732246999999993,0.04746371981970013,-0.02872820630098251,-0.020164138215116312,-0.005679463726253563
16.0,5.0,0.05649060159565419,-0.056738608404345824,-0.0002748254690449885,0.11322921000000001,-0.010642246443434797,0.05649060159565419,0.05370845659565418,0.03318352659565418,0.04990028992898751,-0.056160201737679154,-0.056738608404345824,-0.029531015071012485,-0.03975445507101249,0.0,0.0,0.0,0.0,0.11265080333333334,0.11044706500000001,0.06271454166666666,0.08965474500000001,-0.048440967973281394,0.04808721460797229,-0.0032053065593709296,-0.002456048994579574
16.0,6.0,0.06106348826232085,-0.05876946673767915,-0.0009596302278559539,0.119832955,-0.023588881595384525,0.02138588236232085,0.027826104928987513,0.04178188159565418,0.06106348826232085,-0.03340851007101248,-0.03575474340434582,-0.03468677173767915,-0.05876946673767915,0.0,0.0,0.0,0.0,0.05479439243333333,0.06358084833333333,0.07646865333333333,0.119832955,-0.053926270666437924,-0.067396858272603,-0.020336206963357875,0.051821690170986104
16.0,7.0,0.07436726976232085,-0.07960798507101248,-0.0004923791833845491,0.15397525483333332,-0.08614226501655456,0.062460534595654184,0.06626488492898752,0.05410736159565418,0.07436726976232085,-0.05895709340434582,-0.03605070173767915,-0.06526708840434582,-0.07960798507101248,0.0,0.0,0.0,0.0,0.121417628,0.10231558666666668,0.11937445,0.15397525483333332,0.08806291018591793,0.040408109022453675,-0.03168439657516742,-0.05144353008107094
16.0,8.0,0.1217762415956542,-0.14330093840434582,0.001272381669141543,0.26507718,-0.04191229164577026,0.1217762415956542,0.011067174428987513,0.06673627692898751,0.09105548492898752,-0.07319090490434582,-0.015562635804345819,-0.14330093840434582,-0.08555694673767915,0.0,0.0,0.0,0.0,0.19496714650000002,0.026629810233333332,0.21003721533333333,0.17661243166666668,0.02861220147514621,-0.0022579958580919673,-0.07389894711983348,0.12374429330349976
20.0,1.0,0.0786274553265858,-0.06834947778855706,0.0017459595512176842,0.14697693311514287,0.1186654790842689,0.06901827304087152,0.03604571375515723,0.0786274553265858,0.04274624218372867,-0.028157331530557054,-0.04691319624484276,-0.06834947778855706,-0.052874731244842765,0.0,0.0,0.0,0.0,0.09717560457142857,0.08295891,0.14697693311514287,0.09562097342857143,0.14099108693278045,0.015185009409047108,0.061481357778381554,0.02936494950738759
20.0,2.0,0.039708295898014376,-0.041332155816271345,0.0007273198172409676,0.08104045171428573,0.0765464667837133,0.039708295898014376,0.027592277640871514,0.022519567898014375,0.03786757746944295,-0.041127909387699904,-0.032802656101985635,-0.021352461530557056,-0.03713303953055706,0.0,0.0,0.0,0.0,0.08083620528571428,0.06039493374285715,0.043872029428571435,0.07500061700000002,0.07272417180528568,0.06003904530391247,-0.06263743943800514,0.06577398318971785
20.0,3.0,0.06924784161230008,-0.05659647981627134,0.00023473464354644756,0.1258443214285714,0.11663740728028366,0.04130275104087151,0.06924784161230008,0.024396801183728663,0.02795715689801437,-0.05659647981627134,-0.055130121244842754,-0.03910116795912849,-0.03051147095912848,0.0,0.0,0.0,0.0,0.09789923085714286,0.12437796285714284,0.06349796914285716,0.05846862785714285,0.03594319478587156,0.09866326390074048,0.06934708091176545,0.055187256924953305
20.0,4.0,0.040869599183728664,-0.047493420244842766,0.0016306169548428978,0.08836301942857143,0.1760475122052321,0.040869599183728664,0.025706827612300087,0.03182983061230009,0.03347815018372866,-0.022022270387699914,-0.04158380381627134,-0.045738602244842774,-0.047493420244842766,0.0,0.0,0.0,0.0,0.06289186957142857,0.06729063142857142,0.07756843285714286,0.08097157042857142,0.18495847283592892,-0.0741655323463384,0.09808005747017867,0.0381452793643018
20.0,5.0,0.03855275004087151,-0.047151739244842776,0.00043756313263939727,0.08570448928571428,0.033791560450311425,0.031030484040871515,0.019294558798014373,0.03855275004087151,0.035762846469442944,-0.02765233495912848,-0.03333025747341419,-0.047151739244842776,-0.028911291101985623,0.0,0.0,0.0,0.0,0.058682819,0.052624816271428565,0.08570448928571428,0.06467413757142856,0.09097718587532852,0.003098663833184412,-0.05619433812138064,0.01335966024287183
20.0,6.0,0.03936611604087152,-0.04478580981627134,0.0006707714445457486,0.08415192585714286,0.09385496088309063,0.024542315183728656,0.03147135930372866,0.02822456846944294,0.03936611604087152,-0.03659706438769992,-0.03629808567341419,-0.022851086101985628,-0.03659530024484276,0.0,0.0,0.0,0.0,0.06113937957142858,0.06776944497714285,0.05107565457142857,0.07596141628571429,0.028342154418679173,0.042781069994836635,0.03960951453448479,0.07838215947447963
20.0,7.0,0.05685384332658581,-0.05324196553055705,0.001503221403983013,0.11009580885714286,0.17263138825000734,0.05685384332658581,0.01563247875515723,0.03225787104087151,0.03859340775515723,-0.05324196553055705,-0.032102887816271346,-0.03474495710198563,-0.038914519673414194,0.0,0.0,0.0,0.0,0.11009580885714286,0.04773536657142857,0.06700282814285713,0.07750792742857143,0.13468641460711683,-0.0351073592492701,0.015766501873287465,0.09890804861321473
20.0,8.0,0.05815363161230009,-0.06709191453055706,0.0012907271243942989,0.12524554614285716,0.15682043456029487,0.04978569075515723,0.05322980589801437,0.03657178518372866,0.05815363161230009,-0.04037384638769992,-0.06709191453055706,-0.031208338816271337,-0.05533305124484277,0.0,0.0,0.0,0.0,0.09015953714285715,0.12032172042857142,0.067780124,0.11348668285714286,0.042936383507362355,0.08378513855147092,0.08712222446511032,0.015138222443631139
21.0,1.0,0.07803907332519296,-0.08324858917480704,-0.0009373200608806516,0.16128766249999998,-0.23533099326927873,0.044449253200192954,0.049234640450192955,0.07803907332519296,0.04893281132519294,-0.06416419979980706,-0.03905892442480705,-0.08324858917480704,-0.030144333674807053,0.0,0.0,0.0,0.0,0.10861345300000001,0.08829356487500001,0.16128766249999998,0.07907714499999999,-0.20075814203335254,-0.1332325376745989,-0.03765438714079264,0.04509148644448022
21.0,2.0,0.06858361207519297,-0.11715651667480705,-0.0006620069538474511,0.18574012875,-0.03801645576156146,0.04352127810019294,0.04475227220019294,0.06858361207519297,0.038181747325192944,-0.030145942674807056,-0.048931851674807056,-0.11715651667480705,-0.06282720792480706,0.0,0.0,0.0,0.0,0.073667220775,0.093684123875,0.18574012875,0.10100895525,-0.03967282016356373,-0.07031052981522241,-0.021856012180531577,0.023058372283968127
21.0,3.0,0.08930581082519295,-0.07033221742480705,0.0011165604374592203,0.15963802825,-0.01856547367584624,0.08930581082519295,0.05390521582519295,0.03930927120019294,0.03937086482519295,-0.07033221742480705,-0.04113461517480704,-0.026474063174807057,-0.03586808392480705,0.0,0.0,0.0,0.0,0.15963802825,0.09503983099999999,0.065783334375,0.07523894875,0.04018909592155295,-0.010348176022067612,0.03478747720659637,-0.025226104848162234
21.0,4.0,0.05461360795019295,-0.05806691917480704,-0.0005509508308637477,0.11268052712499999,-0.0641532712654315,0.04989143707519295,0.045568123825192944,0.05461360795019295,0.05063347682519295,-0.05806691917480704,-0.04579079417480706,-0.03085169967480706,-0.05396584442480705,0.0,0.0,0.0,0.0,0.10795835625,0.09135891800000001,0.08546530762500001,0.10459932125,-0.03202860579320557,-0.15069476979643773,0.007285179615898765,0.0885892224935309
21.0,5.0,0.08624653082519294,-0.14507085779980702,-0.0017034165894067265,0.23131738862499995,-0.16697751674429592,0.04823416680019295,0.028954202325192944,0.04699056457519295,0.08624653082519294,-0.036119786549807055,-0.011328105862307054,-0.06248266417480706,-0.14507085779980702,0.0,0.0,0.0,0.0,0.08435395335000001,0.0402823081875,0.10947322875000001,0.23131738862499995,-0.0208846721438177,0.020440200705171767,-0.13579207291909823,-0.12005188230324135
21.0,6.0,0.08873935470019295,-0.11346043167480704,-0.0003880364026619374,0.202199786375,-0.03322750790572268,0.08873935470019295,0.04653546295019295,0.047803025075192955,0.039675905825192946,-0.11346043167480704,-0.03167956954980706,-0.040497418049807055,-0.06750098792480705,0.0,0.0,0.0,0.0,0.202199786375,0.0782150325,0.08830044312500002,0.10717689375,-0.00016452222595250698,-0.005959800790022188,-0.005718301450235802,-0.11006464492816959
21.0,7.0,0.07321426995019294,-0.06575246442480705,-0.0002533897693977114,0.13896673437499998,-0.016124123780461852,0.07316874832519295,0.055192479575192945,0.045936950075192946,0.04943423582519294,-0.06575246442480705,-0.06233664417480706,-0.037544737299807056,-0.037278176924807054,0.0,0.0,0.0,0.0,0.13892121275,0.11752912375,0.083481687375,0.08671241275,-0.040277050140753556,-0.07887266315341174,0.021087844826503638,0.056716472063933564
21.0,8.0,0.10590113832519295,-0.10084632667480706,0.0007858490498975279,0.20674746500000002,0.03410715352048729,0.10590113832519295,0.034301254575192945,0.04963040582519295,0.04673750945019294,-0.10084632667480706,-0.03906069879980705,-0.06613797292480705,-0.028292567799807055,0.0,0.0,0.0,0.0,0.20674746500000002,0.073361953375,0.11576837875000001,0.07503007725,0.024302859525379805,0.014824596588073363,-0.05247378790683325,0.04369073891659902
22.0,1.0,0.10228048064955493,-0.09489805506473081,-0.00013405112543845178,0.19717853571428573,0.03004089162949186,0.07785057922098348,0.10228048064955493,0.056900634935269194,0.04327235636384062,-0.09489805506473081,-0.09284795649330226,-0.06608621935044509,0.0031081066495549045,0.0,0.0,0.0,0.0,0.1727486342857143,0.1951284371428572,0.12298685428571429,0.04016424971428572,-0.237408282376043,0.2960846411656095,0.03390929142286364,0.16215515963733246
22.0,2.0,0.05423895922098348,-0.051375116493302245,-0.00010664852925931836,0.10561407571428572,0.0535350173622845,0.05423895922098348,0.02195662379241204,0.03166513193526919,0.03279996636384062,-0.03404079220758795,-0.0367241493504451,-0.043001045064730806,-0.051375116493302245,0.0,0.0,0.0,0.0,0.08827975142857142,0.05868077314285714,0.074666177,0.08417508285714287,0.08820480822601445,-0.09829143786046479,0.06519632009891649,0.003843165465484369
22.0,3.0,0.09624112064955491,-0.07603239220758795,0.0002399078802185404,0.17227351285714287,0.020120724014832392,0.04777117064955489,0.09624112064955491,0.09378506064955491,0.030517590649554904,-0.052451060779016526,-0.07603239220758795,-0.06578223649330224,-0.020440569064730806,0.0,0.0,0.0,0.0,0.10022223142857142,0.17227351285714287,0.15956729714285717,0.05095815971428571,0.04687809705754517,-0.11458847454960819,0.12491240115275504,-0.021822880013027707
22.0,4.0,0.05502517950669776,-0.03971680649330223,0.0011999842839143812,0.094741986,-0.021977638107380917,0.048487189220983475,0.019899336509554905,0.028309507506697758,0.039403221649554905,-0.03971680649330223,-0.02186082220758795,-0.02351723506473081,-0.01256466606473081,0.0,0.0,0.0,0.0,0.08820399571428571,0.04176015871714285,0.051826742571428566,0.05196788771428572,0.051502472016216036,-0.046941827485320886,-0.030195093473019047,0.017262544701859568
22.0,5.0,0.08354449779241203,-0.055134463636159384,-0.0017064895515201263,0.13867896142857142,-0.059744479766265554,0.06255073493526918,0.08354449779241203,0.05931753779241204,0.04852052207812634,-0.052079910779016525,-0.04668997220758795,-0.055134463636159384,-0.03816138463615938,0.0,0.0,0.0,0.0,0.1146306457142857,0.13023447,0.11445200142857143,0.08668190671428572,-0.1447560357512945,-0.02079398761895783,0.11616426244169126,0.03796537213085435
22.0,6.0,0.04204255064955491,-0.05259261649330225,0.0009618671778423532,0.09463516714285716,0.06606502381406017,0.04204255064955491,0.031316792078126335,0.0313569006495549,0.013079974649554902,-0.0011545589218736672,-0.026679452636159378,-0.05259261649330225,-0.020362852207587955,0.0,0.0,0.0,0.0,0.043197109571428575,0.057996244714285716,0.08394951714285714,0.03344282685714286,0.12103288397969085,-0.07333721629469334,0.06761864137749607,-0.04651262791715979
22.0,7.0,0.09603370493526919,-0.09364058649330223,-0.002193718780651859,0.18967429142857142,-0.12227612206857438,0.09603370493526919,0.04536673636384062,0.042939286363840624,0.0502542396495549,-0.09364058649330223,-0.03802504077901652,-0.04832212935044509,-0.0625918193504451,0.0,0.0,0.0,0.0,0.18967429142857142,0.08339177714285714,0.09126141571428571,0.112846059,-0.19536727621519467,0.04693002599931942,0.06063225215366292,-0.013773195734667107
22.0,8.0,0.07536285779241204,-0.08603547935044509,0.002640033933592128,0.16139833714285712,0.2258276879552648,0.06270739207812634,0.05712205779241205,0.07387384522098348,0.07536285779241204,-0.08603547935044509,-0.05789282077901652,-0.07117160163615938,-0.03930446306473081,0.0,0.0,0.0,0.0,0.14874287142857143,0.11501487857142857,0.14504544685714285,0.11466732085714285,-0.007211698130535349,0.07074329281777361,-0.07101503036478596,0.24690658198520873
23.0,1.0,0.08538004079690723,-0.2294818384780928,-0.0008228763439743201,0.31486187927500003,-0.06782390144857603,0.07267401792190721,0.08538004079690723,0.07218952479690723,0.06233439404690722,-0.20198307832809279,-0.04604945582809279,-0.2294818384780928,-0.019637644703092785,0.0,0.0,0.0,0.0,0.27465709625,0.13142949662500003,0.30167136327500005,0.08197203875,-0.25698201722435576,-0.020880851290068503,-0.07315255471896095,0.05396427949510948
23.0,2.0,0.056373346671907215,-0.04201026495309278,-0.0005696250917066313,0.09838361162499999,-0.008886330920629251,0.037967872814407215,0.056373346671907215,0.032384787671907216,0.04039896579690721,-0.03100754845309278,-0.03501628170309278,-0.04201026495309278,-0.035891934703092786,0.0,0.0,0.0,0.0,0.0689754212675,0.091389628375,0.07439505262499999,0.0762909005,-0.06983167707632532,0.021306523011104247,-0.02597811517259775,0.03954508502286201
23.0,3.0,0.06934243042190721,-0.05459740707809278,-0.0004277417310712569,0.1239398375,-0.004589939604773427,0.06934243042190721,0.01240976354690722,0.04452380792190721,0.05169755167190722,-0.05459740707809278,-0.04367715357809278,-0.04826324332809278,-0.04568592257809278,0.0,0.0,0.0,0.0,0.1239398375,0.056086917124999996,0.09278705124999999,0.09738347424999999,0.05678762029491052,-0.06097757031312607,0.011352788717244142,-0.0798899153580114
23.0,4.0,0.06903730167190722,-0.07101805582809277,1.6853808825062492e-06,0.14005535749999998,-0.12249189680291553,0.028732751046907215,0.03439441692190722,0.06639047667190723,0.041337269171907214,-0.032917548203092784,-0.04956602957809278,-0.07101805582809277,-0.04873684082809278,0.0,0.0,0.0,0.0,0.06165029925,0.08396044650000001,0.1374085325,0.09007410999999999,-0.05239134884296488,-0.13374791577505935,-0.004998459802895899,-0.08945143016784636
23.0,5.0,0.05614519042190722,-0.06853573582809279,-0.0005159539146431623,0.12468092625000002,0.053992280218343264,0.03219807292190722,0.05614519042190722,0.04566973592190722,0.05080279542190722,-0.040402953953092784,-0.06853573582809279,-0.05036984207809278,-0.05551348582809278,0.0,0.0,0.0,0.0,0.072601026875,0.12468092625000002,0.096039578,0.10631628125,0.02240294121499345,-0.01915356289315864,-0.03851867821510485,-0.016018886368093975
23.0,6.0,0.05764219417190722,-0.08609529957809278,0.0010576010140848757,0.14373749375,0.13132837299335615,0.049780592421907216,0.049043394171907215,0.05764219417190722,0.048611971671907214,-0.08609529957809278,-0.03215733470309279,-0.035978160578092784,-0.04475713207809279,0.0,0.0,0.0,0.0,0.135875892,0.081200728875,0.09362035475,0.09336910375,-0.028729424124083858,-0.00907269064114996,-0.010176220579277216,0.1000712739032928
23.0,7.0,0.08660124292190723,-0.06111110457809278,0.00043849774238340777,0.1477123475,0.011821214590256798,0.07178428292190722,0.08660124292190723,0.04055632242190722,0.06121873292190722,-0.04695547670309278,-0.06111110457809278,-0.03891806932809278,-0.04399330670309278,0.0,0.0,0.0,0.0,0.118739759625,0.1477123475,0.07947439175000001,0.105212039625,-0.020337118547895328,0.029669095849842814,-0.06876435875379239,0.012191725513774739
23.0,8.0,0.0833055777969072,-0.05975478457809278,-0.0008306360090843501,0.14306036237499997,-0.09642738614665053,0.060162916671907214,0.053899259171907216,0.07226530042190722,0.04393503292190722,-0.052281668328092785,-0.05975478457809278,-0.04754109432809279,-0.04762475332809279,0.0,0.0,0.0,0.0,0.112444585,0.11365404374999999,0.11980639475000002,0.09155978625000001,-0.01717737831591304,-0.17261256615645132,0.03137207330696602,-0.07379236009382449
24.0,1.0,0.14585910777229774,-0.1578278297277023,0.0005955695943796588,0.30368693750000003,-0.15540699961622734,0.10605663152229773,0.10414466402229774,0.06558770152229772,0.09506410652229771,-0.1578278297277023,-0.13207523472770227,-0.09776429972770226,-0.014387767852702273,0.0,0.0,0.0,0.0,0.26388446125000004,0.23621989875000002,0.16335200125,0.10945187437499998,-0.16902472711044017,-0.24280981174268948,-0.17347052323705014,0.0683861359749554
24.0,2.0,0.08421500402229774,-0.10602171472770228,-0.0024901402080928624,0.19023671875000003,-0.1638859278852403,0.08421500402229774,0.06010232652229773,0.04211718414729773,0.04313683902229773,-0.10602171472770228,-0.06692696597770227,-0.047340898477702266,-0.06725275222770227,0.0,0.0,0.0,0.0,0.19023671875000003,0.1270292925,0.08945808262499999,0.11038959125,-0.022306648265181486,-0.018597613024048228,-0.12888757097455908,-0.11016959653969916
24.0,3.0,0.15388639902229773,-0.09739205722770225,0.00017707498595350796,0.25127845625,-0.04198036601043939,0.11889889027229773,0.06922448777229773,0.15388639902229773,0.023209723897297727,-0.09739205722770225,-0.07368061472770228,-0.08750222847770228,-0.05292459722770228,0.0,0.0,0.0,0.0,0.2162909475,0.1429051025,0.2413886275,0.076134321125,0.08847559157830243,-0.12806108837595173,0.17034348661204166,-0.1246957313891436
24.0,4.0,0.16728962277229772,-0.08696047097770228,-0.00018141684527931095,0.25425009375,-0.09117237277530747,0.04872047402229772,0.16728962277229772,0.09687172164729774,0.02817506264729773,-0.04843568722770228,-0.08696047097770228,-0.08092839847770228,-0.06274473847770227,0.0,0.0,0.0,0.0,0.09715616125,0.25425009375,0.17780012012500002,0.090919801125,-0.009960432221602533,-0.04109481239574625,-0.140484702027208,-0.2224683946291509
24.0,5.0,0.11046509527229773,-0.10276665347770228,0.0004362048371093964,0.21323174875,-0.06479150806474455,0.09091263777229772,0.11046509527229773,0.09951847027229772,0.09576090027229772,-0.10276665347770228,-0.07168379935270228,-0.09578073097770227,-0.07528067347770227,0.0,0.0,0.0,0.0,0.19367929125,0.182148894625,0.19529920125,0.17104157375,-0.11178099410984114,0.05747969651154583,-0.014995077658058006,-0.10198751233681395
24.0,6.0,0.18392852652229771,-0.10600064222770227,0.003502754998835938,0.28992916874999997,0.01907609595844506,0.18392852652229771,0.07906166152229772,0.09349884452229773,0.08214957152229774,-0.10600064222770227,-0.08419449222770228,-0.10015507347770226,-0.1025228372277023,0.0,0.0,0.0,0.0,0.28992916874999997,0.16325615375000002,0.19365391799999998,0.18467240875000002,0.06576638545488078,-0.1904655733338693,-0.1752100865590657,-0.08776419200284533
24.0,7.0,0.23974255527229774,-0.17044973222770227,0.002182161433981484,0.41019228750000003,0.12682091215343283,0.11244165152229772,0.09782091652229773,0.23974255527229774,0.047859909022297725,-0.06753528197770227,-0.17044973222770227,-0.07131145472770227,-0.07336514597770227,0.0,0.0,0.0,0.0,0.1799769335,0.26827064875,0.31105401,0.121225055,0.18104228570611713,-0.2327538314655724,0.11265134672268287,0.02829990429581508
24.0,8.0,0.06956303014729773,-0.10765240972770226,0.0025100491863164934,0.177215439875,0.23769973676216521,0.06437753277229773,0.050598451522297735,0.06956303014729773,0.06498274402229773,-0.046432350977702264,-0.02345115947770227,-0.06849837722770227,-0.10765240972770226,0.0,0.0,0.0,0.0,0.11080988374999999,0.074049611,0.138061407375,0.17263515375,0.1302896750031155,0.09813911099174,-0.03819134135400193,-0.05168520988498361
25.0,1.0,0.3472304814154003,-0.3108474702512663,-0.0010944600340431368,0.6580779516666666,0.5082885941397817,0.276080568082067,0.19821577141540034,0.184547586082067,0.275340298082067,-0.2659347235845997,-0.11514468858459966,-0.22379029691793298,-0.30915138358459965,0.0,0.0,0.0,0.0,0.5420152916666667,0.31336046,0.40833788299999996,0.5844916816666667,0.06837097201094566,0.42865987880596024,-0.58697511655274,0.02131962637715401
25.0,2.0,0.4729463414154003,-0.36500374858459966,-0.010804527092368251,0.83795009,-0.976126433298604,0.18252680808206698,0.39090051474873366,0.3509496014154003,0.4729463414154003,-0.25568248691793305,-0.157583276917933,-0.28533224691793296,-0.36500374858459966,0.0,0.0,0.0,0.0,0.43820929500000005,0.5484837916666667,0.6362818483333332,0.83795009,-0.9876851090464821,0.37807866145142727,-0.7463123786119275,0.4143008153264318
25.0,3.0,0.5061048697487336,-0.3457849685845997,-0.0061232055716572194,0.8518898383333333,-0.37727077460893066,0.36754455141540027,0.11990510308206699,0.5061048697487336,0.2462033364154003,-0.3457849685845997,-0.21030172191793306,-0.292235723417933,-0.1901560635845997,0.0,0.0,0.0,0.0,0.7133295199999999,0.33020682500000004,0.7983405931666666,0.43635939999999995,-0.05703967582713154,-0.26065145456196204,0.1689775498764674,-0.098680715441639
25.0,4.0,0.5973427747487337,-0.5278287845745997,-0.0132816529947352,1.1251715593233333,0.474891245118103,0.156150593082067,0.5973427747487337,0.5624908880820669,0.41164794308206704,-0.19331476525126634,-0.5278287845745997,-0.2775384952512664,-0.2683783085845997,0.0,0.0,0.0,0.0,0.34946535833333336,1.1251715593233333,0.8400293833333333,0.6800262516666667,-0.5303128911297484,-0.9054774803650552,0.3718343669750395,0.2843817730025391
25.0,5.0,0.47177151558206704,-0.3693895557512663,-0.012177392263909504,0.8411610713333333,-0.4444019962607971,-0.0017964085845996894,0.4454426494154003,0.47177151558206704,0.20214900974873362,-0.33897065191793296,-0.22266904191793302,-0.3693895557512663,-0.19614716358459963,0.0,0.0,0.0,0.0,0.3371742433333333,0.6681116913333334,0.8411610713333333,0.3982961733333332,-0.52118796172063,0.06681127651185831,-0.14433068573008367,-0.36908093405048104
25.0,6.0,0.373061803082067,-0.4460261652512664,-0.008508834119124389,0.8190879683333334,0.07465937711011145,0.21789701724873364,0.3188826014154003,0.20076864141540032,0.373061803082067,-0.4460261652512664,-0.16758282525126633,-0.29981831525126634,-0.2260017802512663,0.0,0.0,0.0,0.0,0.6639231825,0.48646542666666664,0.5005869566666666,0.5990635833333333,-0.5422521920045458,0.14355451104057013,-0.19893427665445051,0.3555799509466831
25.0,7.0,0.40715569641540034,-0.2328349002512663,-0.0040662006227880415,0.6399905966666666,0.1629018894384078,0.10550982474873366,0.3039403597487336,0.224217668082067,0.40715569641540034,-0.20164027858459968,-0.19740220525126637,-0.218658466917933,-0.22790154858459963,0.0,0.0,0.0,0.0,0.30715010333333337,0.501342565,0.442876135,0.6350572449999999,-0.1083558959312692,0.3336368319127324,-0.44800270738290016,0.22562208939450584
25.0,8.0,0.46365841641540034,-0.39430330958459964,0.00837684714392514,0.857961726,0.6428982776924125,0.2598367667487337,0.12844459608206701,0.395778263082067,0.46365841641540034,-0.22774479025126637,-0.03900630375126634,-0.3306928585845997,-0.39430330958459964,0.0,0.0,0.0,0.0,0.48758155700000005,0.16745089983333336,0.7264711216666666,0.857961726,-0.2118548485183643,0.5735994924204924,-0.7468935571429223,1.2064485799720517
26.0,1.0,0.036108026166666675,-0.020712373666666662,0.009921279250568306,0.05682039983333334,0.5976041572313385,0.029685124166666663,0.026233818083333332,0.036108026166666675,0.032739043333333336,-0.005122128833333334,-0.014773960666666667,-0.011489051500000002,-0.002703655666666667,0.0,0.0,0.0,0.0,0.034807252999999996,0.04100777875,0.047597077666666675,0.035442699,0.10873596120774513,0.07531973225201352,0.24941924798094725,0.09520761506686741
26.0,2.0,0.05348627183333334,-0.03887324816666667,0.009987076768920695,0.09235952000000001,0.3131159030515942,0.05348627183333334,0.025865076833333334,0.036230836333333336,0.018640008833333332,-0.01435645433333333,0.005773841333333334,-0.03656279983333333,0.005429556250000001,0.0,0.0,0.0,0.0,0.06784272616666667,0.0200912355,0.07279363616666668,0.01321045258333333,0.06461448063916533,0.0866827217826011,0.07399476532772148,0.06492572733377514
26.0,3.0,0.030466210499999997,-0.03350284285,0.010125957585943798,0.06396905335,0.164511496319008,0.030466210499999997,0.020137932916666667,0.0296992755,0.015405268,-0.006470828166666667,0.007250403333333333,-0.03350284285,0.011098691218333333,0.0,0.0,0.0,0.0,0.036937038666666665,0.012887529583333335,0.06320211835,0.004306576781666667,0.06548034824453393,0.0368583142393333,0.0036014182000672825,0.028297749173074954
26.0,4.0,0.028103571333333337,-0.006359335816666668,0.00938518408876963,0.034462907150000006,0.25011752831501227,0.025418384,0.0164010785,0.028103571333333337,0.011910253666666667,-0.006359335816666668,0.00889807745,0.003598728850000001,-0.001562074366666667,0.0,0.0,0.0,0.0,0.03177771981666667,0.007503001049999999,0.024504842483333338,0.013472328033333335,0.06839446392794547,0.015907785509067365,0.07948720567226678,0.030401607922733755
26.0,5.0,0.02853472333333333,0.0001865581666666663,0.010539176421270705,0.028348165166666665,0.19573295748241915,0.021614305666666667,0.0074811042783333335,0.006317207500000001,0.02853472333333333,0.00540689595,0.0027729664999999997,0.004895410666666667,0.009707932383333333,0.0,0.0,0.0,0.0,0.016207409716666666,0.004708137778333334,0.0014217968333333332,0.01882679095,0.062234240302819675,0.01066268364520035,0.004365586229999839,0.07772032433706573
26.0,6.0,0.04343627383333334,-0.027536211,0.01114484148984015,0.07097248483333334,0.37339706042223453,0.022769789833333335,0.007446929416666667,0.04343627383333334,0.016744969166666665,-0.027536211,-0.014593582,0.024079237166666666,0.004607917999999999,0.0,0.0,0.0,0.0,0.050306000833333336,0.02204051141666667,0.01935703666666667,0.012137051166666666,0.21074377493989838,-0.01655001694433337,0.07927833225333512,0.026008688624998277
26.0,7.0,0.0265413585,-0.04416975956666667,0.00928264914602412,0.07071111806666666,0.2054113462573405,0.0265413585,0.0018099111666666672,0.025901572833333334,-0.005968821166666667,0.003708204316666667,-0.044122441166666665,0.008728425350000001,-0.012421804833333333,0.0,0.0,0.0,0.0,0.022833154183333332,0.04593235233333333,0.01717314748333333,0.006452983666666666,0.14449863161404058,-0.018296851376000987,0.09421405961429957,-0.021407215493334426
26.0,8.0,0.05044706333333334,-0.09975050316666667,0.0015303642466666652,0.15019756650000002,0.23246276002253324,0.05044706333333334,0.037918399,0.019791430166666665,-0.0573628015,0.008948205916666669,0.035550981363333324,-0.0037839470833333326,-0.08303428483333333,0.0,0.0,0.0,0.0,0.041498857416666673,0.0023674176366666744,0.023575377249999998,0.025671483333333335,0.19274218870159612,0.027892669371599777,0.012064194856197495,-0.08491576973333644
27.0,1.0,0.36886383754705243,-0.19834515932794752,0.0011267280488199579,0.5672089968749999,-0.22093899545895423,0.21107810067205246,0.2842911381720525,0.22308676204705244,0.36886383754705243,-0.19834515932794752,-0.17648057682794757,-0.17870105607794753,-0.06995815345294754,0.0,0.0,0.0,0.0,0.40942325999999996,0.460771715,0.401787818125,0.43882199099999997,-0.2866209428840165,0.06244849340346595,-0.5062093375209233,0.49691784283891205
27.0,2.0,0.31827415942205245,-0.2831729803279476,0.001775688569393857,0.6014471397500001,0.017206390651232945,0.31827415942205245,0.2630001256720525,0.29941787817205245,0.13724463692205247,-0.17614215345294756,-0.16515287057794753,-0.2831729803279476,-0.16452572207794758,0.0,0.0,0.0,0.0,0.494416312875,0.42815299625000003,0.5825908585,0.30177035900000004,0.16795953621857185,-0.14988488307674178,0.1934348157041537,-0.1628084991902939
27.0,3.0,0.3331319631720524,-0.1728190114529476,0.000568894805569303,0.5059509746249999,-0.1902556414725109,0.28565664067205243,0.24768981442205246,0.3331319631720524,0.10659985442205246,-0.1728190114529476,-0.13728163432794754,-0.10165731182794756,-0.14165833807794753,0.0,0.0,0.0,0.0,0.458475652125,0.38497144875,0.434789275,0.24825819249999997,-0.13426204266812708,-0.07608440277609169,0.28872680542910173,-0.03134654292612486
27.0,4.0,0.6039237406720525,-0.21306656057794757,0.0006508939470813501,0.81699030125,-0.2948086215546913,0.21814192692205248,0.47191575192205243,0.6039237406720525,0.28681868067205246,-0.21306656057794757,-0.15035330682794756,-0.2008997955779476,-0.15934149057794755,0.0,0.0,0.0,0.0,0.43120848750000007,0.6222690587499999,0.80482353625,0.44616017125,-0.041197901835351824,-0.029629347895414715,0.19522103992762493,-0.12412950358270655
27.0,5.0,0.3476531377970525,-0.20895398807794754,-0.002689887122404403,0.556607125875,-0.6668653860959849,0.15145384729705244,0.12095206279705244,0.3476531377970525,0.10688718692205244,-0.14571346932794754,-0.15166511307794756,-0.20895398807794754,-0.08167979432794756,0.0,0.0,0.0,0.0,0.29716731662499996,0.272617175875,0.556607125875,0.18856698125,-0.28522833205121684,-0.247210021679731,-0.020731407661022272,0.0005597744236058022
27.0,6.0,0.31115545104705244,-0.13930402395294755,-0.0008043472246451813,0.450459475,-0.18019508141707016,0.31115545104705244,0.07889506354705245,0.19393431442205245,0.10567441442205244,-0.13930402395294755,-0.05899618807794755,-0.11694219932794754,-0.07135107432794754,0.0,0.0,0.0,0.0,0.450459475,0.137891251625,0.31087651374999997,0.17702548875,0.09494249119151169,-0.18220801312968374,-0.09658839118794219,-0.09025836443833299
27.0,7.0,0.23117658192205248,-0.22544477932794754,0.0005747534618319074,0.45662136125,-0.34313282389599753,0.17034060032205245,0.08406122817205246,0.23117658192205248,0.17892446442205245,-0.1389039618279475,-0.08672438432794756,-0.22544477932794754,-0.07196172195294755,0.0,0.0,0.0,0.0,0.30924456214999996,0.17078561250000002,0.45662136125,0.250886186375,0.016935136635756604,-0.175613632586153,-0.22276185696294093,-0.039191135418154166
27.0,8.0,0.11795777817205244,-0.20510624057794757,-0.0014851673740607584,0.32306401875,-0.39739790600743413,0.11023843942205246,0.10100740817205245,0.11795777817205244,0.07115337067205245,-0.10123995307794754,-0.05867331220294755,-0.18207563182794756,-0.20510624057794757,0.0,0.0,0.0,0.0,0.2114783925,0.159680720375,0.30003341,0.27625961125000004,-0.2965719520703636,-0.05283943736017879,0.10612525952254293,-0.1760107541381567
28.0,1.0,0.2666797803224391,-0.14934180967756086,0.0008843030762942669,0.41602158999999994,0.13512677887660363,0.11960380282243915,0.2666797803224391,0.17510992407243914,0.04937226032243913,-0.13205299217756086,-0.14934180967756086,-0.07324134492756088,-0.08116481505256087,0.0,0.0,0.0,0.0,0.25165679500000004,0.41602158999999994,0.248351269,0.130537075375,0.05476858462858618,0.14213632496677614,0.15076040158249351,-0.09426767689307261
28.0,2.0,0.37301028032243916,-0.2308145821775609,0.0022161773305931455,0.6038248625,0.11156789413827978,0.37301028032243916,0.25910888282243916,0.14621747782243913,0.18601816657243914,-0.2308145821775609,-0.19016502092756085,-0.10063732842756087,-0.11640435592756088,0.0,0.0,0.0,0.0,0.6038248625,0.44927390375,0.24685480625,0.3024225225,0.037200668841177564,0.1548281434030665,-0.025045098576323588,-0.07318104624455612
28.0,3.0,0.17271661532243912,-0.17978159342756087,-0.0040390948485869195,0.35249820875,-0.26643057877093024,0.11860881282243912,0.17271661532243912,0.13179369157243914,0.07920296657243914,-0.17978159342756087,-0.12081865967756088,-0.12384554342756086,-0.08315465967756087,0.0,0.0,0.0,0.0,0.29839040625,0.293535275,0.255639235,0.16235762625,-0.45669217314398625,0.0345146608015211,0.08301315419441871,-0.22139857814405467
28.0,4.0,0.18316941782243912,-0.17830698217756086,-0.0015824991946488975,0.3614764,0.04340683208635254,0.18316941782243912,0.08762796782243913,0.15192132532243913,0.15602420532243913,-0.15255023592756087,-0.13378304967756088,-0.17797403217756086,-0.17830698217756086,0.0,0.0,0.0,0.0,0.33571965375,0.22141101750000003,0.3298953575,0.3343311875,-0.05578313773235366,-0.02507029148775708,-0.20703594663555208,-0.05278680643970746
28.0,5.0,0.31030814157243913,-0.2144486296775609,-0.0014131404579531995,0.5247567712500001,0.14347178721631879,0.08517955894743913,0.21782389282243916,0.31030814157243913,0.17443532657243915,-0.11482365742756084,-0.21426973842756086,-0.16524616092756086,-0.10044647217756086,0.0,0.0,0.0,0.0,0.20000321637499996,0.43209363125,0.47555430249999997,0.27488179875,-0.1420069596587263,-0.24290586133756478,0.11318469960049293,0.3199628464694107
28.0,6.0,0.18162838407243911,-0.16769831717756084,0.0018987533787682381,0.34932670125,0.19318132378000796,0.08282101032243913,0.14848643032243913,0.18162838407243911,0.17642118282243913,-0.10843223967756087,-0.09271793967756087,-0.16769831717756084,-0.10330255717756086,0.0,0.0,0.0,0.0,0.19125324999999999,0.24120437,0.34932670125,0.27972374,-0.04746447585422263,-0.007863932642389354,-0.16031569718654598,0.1623362259453403
28.0,7.0,0.25205190782243914,-0.19375953467756088,0.0018160444290615148,0.44581144250000004,0.007252172173699223,0.25205190782243914,0.05628109294743913,0.12557049032243914,0.11385263907243914,-0.14663233467756084,-0.06938690967756087,-0.19375953467756088,-0.12544928592756088,0.0,0.0,0.0,0.0,0.3986842425,0.125668002625,0.319330025,0.23930192500000003,0.21192933740924993,-0.0387143870735062,-0.1702106062390792,-0.031375943278761365
28.0,8.0,0.18532988907243914,-0.17411704842756087,-0.00030459424774349335,0.3594469375,0.14465045615080746,0.17407053157243915,0.18532988907243914,0.11133603157243913,0.12812223532243913,-0.17411704842756087,-0.08324884217756087,-0.13576943092756086,-0.09676336842756086,0.0,0.0,0.0,0.0,0.34818758000000005,0.26857873125,0.24710546249999998,0.22488560375,-0.48661564275744623,0.2664301116763066,0.07879699573293208,0.09201883404829342
29.0,1.0,0.12672742653796987,-0.12433391846203012,-0.0008928980770696827,0.251061345,0.027040240663429374,0.10105826903796988,0.09367983278796989,0.12672742653796987,0.11152915528796987,-0.06345251846203012,-0.12433391846203012,-0.07355794258703012,-0.08096074083703012,0.0,0.0,0.0,0.0,0.1645107875,0.21801375125,0.200285369125,0.192489896125,0.0035765322138925706,-0.13441849347622603,0.09785562895784661,-0.008959479066054626
29.0,2.0,0.12514050153796988,-0.054824497489530125,0.0008449998679321025,0.17996499902750002,-0.14025179665142695,-0.04404868608703012,0.08308732878796987,0.05141699366296988,0.12514050153796988,-0.04404868608703012,-0.04877815346203013,-0.024432109462030123,-0.054824497489530125,0.0,0.0,0.0,0.0,0.0,0.13186548225,0.07584910312500001,0.17996499902750002,0.0,0.022466427547959383,-0.033251650214828274,0.14472704493834448
29.0,3.0,0.12527142403796987,-0.07608333471203013,-0.0005479279711725689,0.20135475875,-0.5058332755251496,-0.05237924096203013,0.09897974704221987,0.12527142403796987,0.050050941662969875,-0.05237924096203013,-0.06093624271203012,-0.05142441846203012,-0.04188399821203012,0.0,0.0,0.0,0.0,0.0,0.15991598975424998,0.17669584249999998,0.091934939875,0.0,0.04105343549310472,0.015781379928877938,0.03833257127282006
29.0,4.0,0.1313229465379699,-0.08488868333703012,0.0008619442784208724,0.216211629875,0.2795383904284271,0.1313229465379699,0.06966191903796988,0.11998689778796989,0.11662464403796988,-0.06205292471203012,-0.06534353471203012,-0.03607746943703012,-0.08073412221203012,0.0,0.0,0.0,0.0,0.19337587125,0.13500545375,0.156064367225,0.19735876624999998,0.11320486793529104,0.04595109275903894,0.04388342657709003,0.16650963766023616
29.0,5.0,0.08569380153796988,-0.08272391846203012,-0.0002354243540189015,0.16841772,0.07130468741899582,0.06344172566296988,0.08005101403796988,0.07510483778796988,0.08569380153796988,-0.08272391846203012,-0.04247266346203012,-0.058311094712030116,-0.05303859996203012,0.0,0.0,0.0,0.0,0.146165644125,0.12252367750000001,0.1334159325,0.1387324015,0.022760827604585802,0.05585767797847491,0.05219957778047908,0.07323960925146789
29.0,6.0,0.12401745903796989,-0.061529947212030124,0.0013030506995699443,0.18554740625000002,0.2665994051935557,0.12401745903796989,0.07899681403796988,0.09457901778796989,0.08932286528796987,-0.04728238158703013,-0.03958540471203013,-0.025308168087030125,-0.061529947212030124,0.0,0.0,0.0,0.0,0.17129984062500003,0.11858221875,0.11988718587500001,0.1508528125,0.0994205826434276,-0.013037592927568953,0.061106420958086244,0.11634084415976173
29.0,7.0,0.10044337403796987,-0.07814574346203013,0.00024008562604958814,0.1785891175,0.22807303259871542,0.10044337403796987,0.09839390403796988,0.08793734153796988,0.09847398778796988,-0.05099861096203013,-0.061684014712030125,-0.06726090721203012,-0.03920110871203013,0.0,0.0,0.0,0.0,0.151441985,0.16007791875,0.15519824875,0.1376750965,0.037679299826231624,0.09228312008678914,0.11222462492323063,0.10168805949749461
29.0,8.0,0.1466259340379699,-0.11096899221203012,0.0006976439055074158,0.25759492625,0.21741726710174936,0.10970153653796988,0.08126245403796989,0.061442355287969874,0.1466259340379699,-0.11096899221203012,-0.05272506271203011,-0.040787740962030125,-0.08657069096203013,0.0,0.0,0.0,0.0,0.22067052874999998,0.13398751675,0.10223009625,0.23319662500000002,-0.04772018454350119,0.10909593928850729,0.02045242911908457,0.012303129021167397
30.0,1.0,0.04828862383454603,-0.03875887454045397,0.0003624132741446895,0.087047498375,0.019116936398550166,0.04450632879704604,0.04180212545954603,0.03668276145954603,0.04828862383454603,-0.03875887454045397,-0.026472063040453967,-0.02649297661545397,-0.03181632141545397,0.0,0.0,0.0,0.0,0.08326520333750001,0.0682741885,0.063175738075,0.08010494525,0.006284551067612387,0.04332846701232963,-0.021303492895669265,0.02156071080811466
30.0,2.0,0.03263087683454603,-0.031479247427953966,0.0006792927675458807,0.0641101242625,-0.12966820209777766,-0.031479247427953966,0.01626757708454603,0.03263087683454603,0.02616922970954603,-0.031479247427953966,-0.023682337290453968,-0.01399940977795397,-0.02192391902795397,0.0,0.0,0.0,0.0,0.0,0.039949914375,0.0466302866125,0.048093148737499994,0.0,-0.034097111496775794,0.03738083712928447,0.042774703149104636
30.0,3.0,0.06437543083454603,-0.04070126549045397,0.00038006938567932005,0.105076696325,0.07803531907281161,0.06437543083454603,0.02864613708454603,0.02347126720954603,0.022775711009546028,-0.04070126549045397,-0.037985008540453974,-0.02740911229045397,-0.02294935854045397,0.0,0.0,0.0,0.0,0.105076696325,0.066631145625,0.0508803795,0.04572506955,0.12629741223557878,-0.06434716277573989,0.03154970692875717,-0.03948142027467027
30.0,4.0,0.03368517470954603,-0.05202297766545397,6.869690899316822e-05,0.085708152375,-0.02774992801848024,0.028254417459546034,0.029952730754546027,0.028472909584546027,0.03053460133454603,-0.01907216087795397,-0.05202297766545397,-0.048323318915453974,-0.02544998279045397,0.0,0.0,0.0,0.0,0.04732657833750001,0.08197570841999999,0.07679622850000001,0.055984584125,-0.015634393796858236,-0.059515155430909426,-0.012155516616963081,-0.012643541416008507
30.0,5.0,0.04203735533454603,-0.042354108915453964,0.0004101756630184731,0.08439146424999999,0.08242392136206136,0.04203735533454603,0.028150650334546036,0.03634025608454603,0.03533527983454603,-0.022819142165453967,-0.042354108915453964,-0.03304350516545397,-0.029904347727953966,0.0,0.0,0.0,0.0,0.0648564975,0.07050475925,0.06938376125000001,0.06523962756249999,0.04887140893423124,0.008503034516188144,0.00947778298123711,0.026551955714519973
30.0,6.0,0.03184747845954603,-0.03979541416545397,0.00021093859712153948,0.07164289262500001,-0.00585597929892577,0.01835656808454603,0.03184747845954603,0.02311378533454603,0.01907381553654603,-0.03979541416545397,-0.03270477157795397,-0.01832986204045397,-0.02237348816545397,0.0,0.0,0.0,0.0,0.05815198225,0.06455225003750001,0.041443647375,0.041447303702000005,-0.0285357399424237,0.013915587850556549,0.00801955323586858,-0.021762919644508584
30.0,7.0,0.05445910483454603,-0.043107972290453975,0.0005365275513382227,0.09756707712500001,0.03126794327087487,0.02959601845954603,0.03752962158454603,0.03880246120954603,0.05445910483454603,-0.03513334354045397,-0.02976048754045397,-0.029121890290453964,-0.043107972290453975,0.0,0.0,0.0,0.0,0.064729362,0.067290109125,0.0679243515,0.09756707712500001,0.03331240441656285,0.0001917574738388994,0.0553473869787279,-0.06494464366246822
30.0,8.0,0.027576916709546026,-0.053579437790453974,-0.0001937331506442244,0.0811563545,0.10165345764756067,0.025566490822046033,0.027576916709546026,0.02471427445954603,0.020517522584546033,-0.025293946540453967,-0.03250142154045397,-0.02174872541545397,-0.042259889040453975,0.0,0.0,0.0,0.0,0.0508604373625,0.060078338249999995,0.046462999875,0.062777411625,-0.00714700484852294,0.028971792608195455,0.03240375717343734,0.03594900813644517
31.0,1.0,0.08982708952618138,-0.056420246723818616,-0.001163226572377258,0.14624733625,-0.28189770997318525,0.06326160202618139,0.04360548802618139,0.027954606151181387,0.08982708952618138,-0.056420246723818616,-0.039417524348818615,-0.03323194547381861,-0.05462403172381861,0.0,0.0,0.0,0.0,0.11968184875000001,0.08302301237500001,0.061186551624999995,0.14445112124999998,0.011414865384531972,-0.0036787996547947045,-0.06705606523115654,-0.016202063834678926
31.0,2.0,0.1695172520261814,-0.1292271524863186,-0.00047348016871180394,0.2987444045125,-0.22084448469899481,0.09251868077618139,0.11149613877618139,0.06717290577618139,0.1695172520261814,-0.08757354922381862,-0.07526124097381862,-0.1292271524863186,-0.08329733797381861,0.0,0.0,0.0,0.0,0.18009223000000002,0.18675737975,0.1964000582625,0.25281459,-0.06428415495447895,0.03750954997261479,-0.12670765319303207,-0.05097307496184661
31.0,3.0,0.16784496452618136,-0.1136768457238186,0.006194592393398084,0.28152181024999995,0.6732647756280278,0.16784496452618136,0.06444997077618139,0.030095719651181393,0.0844993857761814,-0.1136768457238186,-0.04309812347381861,-0.042040778848818613,-0.04037125672381861,0.0,0.0,0.0,0.0,0.28152181024999995,0.10754809425,0.07213649850000001,0.1248706425,0.6112013951118167,0.10975928835967899,-0.05718491664264702,0.051351976578958486
31.0,4.0,0.08964485702618138,-0.07543685172381862,-0.0015123020479159332,0.16508170875,-0.09423116452248635,0.08964485702618138,0.04055793977618139,0.08305991327618138,0.06660461515118139,-0.06030248547381861,-0.07543685172381862,-0.03202559422381861,-0.0634521542238186,0.0,0.0,0.0,0.0,0.1499473425,0.1159947915,0.11508550749999999,0.130056769375,0.005068067721307537,-0.08930286394180804,0.11620392643306851,-0.1618517649939066
31.0,5.0,0.08352759202618139,-0.06276278922381862,-0.0009922644735312692,0.14629038125,-0.07222569742954664,0.052236976776181394,0.08352759202618139,0.07923308077618138,0.03606571952618139,-0.06276278922381862,-0.037142246723818606,-0.03356922372381861,-0.03798215997381861,0.0,0.0,0.0,0.0,0.114999766,0.12066983875,0.11280230449999999,0.0740478795,-0.10026721794442824,0.04592628549358063,0.050345069388888386,-0.043272851450104205
31.0,6.0,0.07617557690118139,-0.05600729047381861,-0.0015122364882950564,0.132182867375,-0.054187262984843526,0.07617557690118139,0.01591457877618139,0.04814439327618139,0.03354741702618139,-0.05600729047381861,-0.02488305259881861,-0.040112060473818614,-0.05127346922381861,0.0,0.0,0.0,0.0,0.132182867375,0.040797631375,0.08825645375,0.08482088625,-0.011776494869627105,-0.028834134127967773,0.0832630881304196,-0.03508930458443084
31.0,7.0,0.1305110945261814,-0.04131517047381861,-0.00012153026581526957,0.171826265,0.017467192681437836,0.04294371577618139,0.04869367827618139,0.04590959502618139,0.1305110945261814,-0.03765825672381861,-0.03782104547381861,-0.04131517047381861,-0.032738935473818606,0.0,0.0,0.0,0.0,0.08060197250000001,0.08651472375,0.0872247655,0.16325003,0.017158813529268437,0.018387372076666297,-0.13225471326562996,0.04649956874711422
31.0,8.0,0.1171348957761814,-0.11950956172381859,-0.0004549170532323592,0.2366444575,0.21236971297712873,0.1073338932761814,0.02078754143118139,0.03868717452618139,0.1171348957761814,-0.04741965047381862,-0.016017255473818614,-0.050240618098818614,-0.10460351922381862,0.0,0.0,0.0,0.0,0.15475354375,0.036804796905000006,0.088927792625,0.22173841500000002,-0.054825472622915025,0.05074900847013139,-0.03237885381396924,0.2741399236088245
32.0,1.0,0.2604038195522791,-0.16424505044772092,0.0038264646628306106,0.42464887,0.9861841740129206,0.1309145545522791,0.1559453845522791,0.18150849705227912,0.2604038195522791,-0.1465248979477209,-0.1481885454477209,-0.0818101804477209,-0.16424505044772092,0.0,0.0,0.0,0.0,0.2774394525,0.30413393,0.26331867750000004,0.42464887,-0.02952760320403379,-0.10627985182751153,0.34359383489629663,0.4164027666652311
32.0,2.0,0.2498179195522791,-0.2141987579477209,-0.002208842687226312,0.4640166775,-0.0683458861280983,0.1390079570522791,0.2498179195522791,0.1730205495522791,0.2020274270522791,-0.2141987579477209,-0.14290159044772088,-0.1782683854477209,-0.10894538944772089,0.0,0.0,0.0,0.0,0.353206715,0.39271951,0.351288935,0.31097281649999997,-0.2191051957924574,0.23556583212747695,0.04791892892934871,0.1329618697449329
32.0,3.0,0.2423254170522791,-0.2035402454477209,-0.0021649020728199604,0.44586566250000004,-0.1779571600127317,0.1139430545522791,0.1292133220522791,0.1352592670522791,0.2423254170522791,-0.1123438279477209,-0.0986800429477209,-0.11968950544772089,-0.2035402454477209,0.0,0.0,0.0,0.0,0.2262868825,0.227893365,0.2549487725,0.44586566250000004,-0.08806378996984981,0.07428039082350588,-0.07940696162672886,-0.1759768703026033
32.0,4.0,0.3381526495522791,-0.3368145804477209,-0.0006897948297393396,0.67496723,-0.2784107358134772,0.12395022705227912,0.29065819455227915,0.3381526495522791,0.1931647195522791,-0.3368145804477209,-0.1268403304477209,-0.2613450304477209,-0.15837288544772088,0.0,0.0,0.0,0.0,0.46076480750000004,0.41749852500000006,0.59949768,0.351537605,-0.21451683868311494,0.009186029056257983,-0.38128317758254665,0.02857391927378808
32.0,5.0,0.3115301595522791,-0.6075513829477209,0.0008212886825243347,0.9190815425000001,-0.6879104081314977,0.11766479955227911,0.1218354620522791,0.2106136370522791,0.2719046695522791,-0.19301569294772092,-0.6075513829477209,-0.0781168554477209,-0.5052638979477209,0.0,0.0,0.0,0.0,0.3106804925,0.7293868450000001,0.2887304925,0.7771685675,-0.059798796740243465,-0.25820021188474895,0.3528511540316335,-0.3672130563106123
32.0,6.0,0.2693571295522791,-0.5723671466977209,-0.0003957990002640008,0.84172427625,-0.9458480373938847,0.1806279345522791,0.2693571295522791,0.16703457205227912,0.1079746170522791,-0.16699908044772088,-0.5589063586977209,-0.1975311504477209,-0.1571280479477209,0.0,0.0,0.0,0.0,0.347627015,0.82826348825,0.3645657225,0.265102665,0.06998232045668537,-0.07431856784539986,0.09914857922106493,-0.17909208694694617
32.0,7.0,0.3731792695522791,-0.41891880794772085,-0.0009388083786544593,0.7920980774999999,0.17284375299242238,0.2217387970522791,0.3731792695522791,0.2940192645522791,0.22988798705227914,-0.2638625129477209,-0.17606906544772088,-0.2038107704477209,-0.16306169544772087,0.0,0.0,0.0,0.0,0.48560131,0.5492483349999999,0.497830035,0.3929496825,-0.17399028611133083,0.18001930075824757,-0.008994510981673753,0.2700314250425723
32.0,8.0,0.4513829445522791,-0.2425617054477209,0.0005569416631781935,0.69394465,0.7511817177592737,0.2189246995522791,0.4513829445522791,0.1500416345522791,0.3080879595522791,-0.2425617054477209,-0.1525224729477209,-0.1737682179477209,-0.1953147554477209,0.0,0.0,0.0,0.0,0.46148640500000004,0.6039054175,0.3238098525,0.503402715,-0.08278968638459133,0.39496444135274,-0.16178056897746776,0.13221332791983012
33.0,1.0,0.0887300842267137,-0.08849492442328628,-0.00038663215120767185,0.17722500865,-0.004817212715566864,0.0887300842267137,0.044232419101713716,0.04019562845171372,0.05784412643921372,-0.08539339612328628,-0.06967970246516128,-0.08849492442328628,-0.06787637719828628,0.0,0.0,0.0,0.0,0.17412348034999997,0.113912121566875,0.128690552875,0.12572050363749998,-0.12726807909491372,-0.053257865829033066,-0.03713380145179931,0.1234825879198652
33.0,2.0,0.03789917090171372,-0.03789346459203628,3.6504964977804065e-05,0.07579263549375001,0.05651233455560712,0.027793632491713724,0.026594752539213718,0.03789917090171372,0.033655948314213716,-0.021214689860786284,-0.03574197959828628,-0.016995414473286282,-0.03755947063578628,0.0,0.0,0.0,0.0,0.04900832235250001,0.0623367321375,0.054894585375,0.07121541895,0.08330303166667902,0.025729060441011788,0.14419317620994454,-0.05051556125549127
33.0,3.0,0.05212794715171372,-0.04591467641453628,0.0007269944015931009,0.09804262356625,0.14668318222426593,0.05212794715171372,0.03888079552171372,0.02834272903921372,0.037069315376713714,-0.00961263422078628,-0.040746137760786276,-0.01684027355078628,-0.04242272473203628,0.0,0.0,0.0,0.0,0.0617405813725,0.07962693328249999,0.04518300259,0.07949204010875,0.09364570810324219,0.026968353817509526,0.07860771676362778,0.0705680737718057
33.0,4.0,0.06836821793046371,-0.055892131585786285,0.0004368414851871276,0.12426034951625001,0.11454984546826036,0.04800853674171372,0.042542472901713715,0.06836821793046371,0.03129774397796372,-0.044217216135786275,-0.026164464748286282,-0.055892131585786285,-0.02595238624453628,0.0,0.0,0.0,0.0,0.0922257528775,0.06870693765,0.12426034951625001,0.0572501302225,0.07413052354670559,0.09847465384679155,-0.002009180865870555,0.01996368155716303
33.0,5.0,0.061302976414213714,-0.09181730514828629,0.0003452631353799415,0.15312028156250002,0.14567323272877608,0.05607864590008873,0.061184211351713716,0.04993642446421372,0.061302976414213714,-0.031748815135786285,-0.06583617438828628,-0.07140401322328627,-0.09181730514828629,0.0,0.0,0.0,0.0,0.08782746103587502,0.12702038574,0.1213404376875,0.15312028156250002,0.06516619579958893,0.004883899340704781,0.12463475526048193,-0.03728199371953275
33.0,6.0,0.054281623616713716,-0.06647254048703627,0.0010188516900676526,0.12075416410374998,0.120445247548189,0.054281623616713716,0.04426802956421372,0.03372676072671372,0.051859925251713714,-0.06647254048703627,-0.03403084127328629,-0.02310347104578628,-0.05072936827453628,0.0,0.0,0.0,0.0,0.12075416410374998,0.0782988708375,0.0568302317725,0.10258929352624999,0.17602590099675894,-0.04321608759384103,0.016130300374782115,-0.04745430979206543
33.0,7.0,0.07371183176421374,-0.052871498010786284,0.0008374395638068357,0.12658332977500003,0.16531891490648865,0.07099210230921373,0.05098930676421372,0.04758939850071372,0.04897849723921372,-0.036810150718286284,-0.03869762174953628,-0.052871498010786284,-0.035527153573286285,0.0,0.0,0.0,0.0,0.10780225302750002,0.08968692851375,0.1004608965115,0.0845056508125,0.019677676641247158,-0.05959836821950594,0.09620993684678264,0.0635143315691847
33.0,8.0,0.08345657760171371,-0.05385529313578629,0.0019652864766818213,0.1373118707375,0.14824615876924677,0.05121436198921372,0.04061920683921372,0.03168529371421372,0.08345657760171371,-0.03086588797328628,-0.05385529313578629,-0.03855897757328628,-0.052537404023286285,0.0,0.0,0.0,0.0,0.08208024996249999,0.09447449997500001,0.07024427128749999,0.13599398162499998,-0.017121336015422525,-0.00850938581260037,0.05049641845785657,0.07471367191676587
34.0,1.0,0.09842857314612027,-0.05946122935387973,-0.00022053981760280334,0.1578898025,0.0027491636938254196,0.08088914564612026,0.09842857314612027,0.04294267189612027,0.052319494396120256,-0.05304748747887973,-0.05946122935387973,-0.042567015603879724,-0.04451924435387973,0.0,0.0,0.0,0.0,0.13393663312499998,0.1578898025,0.08550968749999999,0.09683873874999999,0.0801453080020902,-0.04096773281695615,0.010471063575895393,-0.013692527235564599
34.0,2.0,0.04836096064612027,-0.05318488935387973,-0.0005154582599056416,0.10154585,0.03157584903023884,0.03792591274612027,0.04836096064612027,0.03683326939612026,0.04594396939612027,-0.035735050603879735,-0.04231818435387973,-0.026302622478879736,-0.03489669310387973,0.0,0.0,0.0,0.0,0.07366096335,0.090679145,0.063135891875,0.0808406625,-0.0012340478135003038,0.030902535001865697,0.037023317132692586,-0.014933869093992379
34.0,3.0,0.06882079814612026,-0.05963682435387973,8.17494156314346e-06,0.12845762249999998,0.033190669323308726,0.06509511189612027,0.06882079814612026,0.054631558146120265,0.06632313689612027,-0.05963682435387973,-0.04215324060387973,-0.04091180810387973,-0.04868218935387973,0.0,0.0,0.0,0.0,0.12473193625000001,0.11097403874999999,0.09554336625,0.11500532625,0.01574757439854703,-0.08875478170053808,0.01278951956363452,-0.06922410243715535
34.0,4.0,0.08144974314612027,-0.06351788685387973,-0.00025352863728092756,0.14496763000000001,-0.028034959650526936,0.08144974314612027,0.03965933064612027,0.05120488814612027,0.06031732064612026,-0.05559570435387974,-0.05458054935387973,-0.04161325560387973,-0.06351788685387973,0.0,0.0,0.0,0.0,0.13704544750000003,0.09423988,0.09281814375,0.12383520749999999,0.13326525765309977,-0.040196584340252896,-0.016816524510931567,-0.11595772182636434
34.0,5.0,0.06481855064612027,-0.07308290685387975,-0.00047411010703351625,0.13790145750000002,-0.02193421078891484,0.06278386814612028,0.039674679396120266,0.06481855064612027,0.03250158590862027,-0.06781551947887973,-0.07308290685387975,-0.046173439978879724,-0.05154555685387974,0.0,0.0,0.0,0.0,0.130599387625,0.11275758625000001,0.110991990625,0.0840471427625,0.019918492172750185,-0.014712080003500022,0.00969502773215039,-0.0036293416043970527
34.0,6.0,0.07369046689612027,-0.06653659435387974,-0.0005551886708737447,0.14022706125,-0.056620274476732096,0.04862456564612027,0.06651234064612027,0.07369046689612027,0.037838500646120266,-0.04510646435387974,-0.06653659435387974,-0.05340877435387974,-0.05743254310387974,0.0,0.0,0.0,0.0,0.09373103,0.133048935,0.12709924125,0.09527104375,0.020649179599013467,-0.08887342683833777,0.032186696128105007,0.0019943970560999252
34.0,7.0,0.10337356439612026,-0.06337588185387973,-0.0004308608544245126,0.16674944625,-0.14193798342484867,0.06615404689612027,0.10337356439612026,0.04126903439612026,0.04304587689612027,-0.057438263103879734,-0.06337588185387973,-0.039647785603879736,-0.05675165435387974,0.0,0.0,0.0,0.0,0.12359231000000001,0.16674944625,0.08091682,0.09979753125000002,0.010294179459689384,-0.08233299221321203,-0.006600352326575399,-0.10279622165651424
34.0,8.0,0.07491308564612029,-0.061231308103879736,-0.0010125380663108165,0.13614439375000004,-0.13642460087497654,0.05630744689612027,0.04205465064612027,0.07491308564612029,0.04874547439612027,-0.05873835810387974,-0.05549305060387973,-0.061231308103879736,-0.058169505603879734,0.0,0.0,0.0,0.0,0.11504580500000001,0.09754770125000001,0.13614439375000004,0.10691498,-0.018536708053042125,-0.10149998871829026,-0.04220128710744997,-0.05982748393154773
35.0,1.0,0.0292331698442543,-0.023131539141459986,3.340238710688336e-05,0.052364708985714284,-0.03468645931025197,0.015305471001397158,0.011527587515682872,0.019504001144254303,0.025688982001397156,-0.023131539141459986,-0.019313784141459987,-0.01622529842717427,-0.02045348242717427,0.0,0.0,0.0,0.0,0.03843701014285714,0.03084137165714286,0.03572929957142858,0.04614246442857142,0.013648328636099535,-0.02932136686763337,-0.021873350387569386,0.0028128947451696584
35.0,2.0,0.023586278001397155,-0.08527578628431712,-6.011212308950874e-05,0.10886206428571427,-0.011176136444632431,0.0213071651442543,0.023586278001397155,0.019054552287111445,0.021290764715682867,-0.03657359771288855,-0.016828363284317128,-0.014801671998602843,-0.08527578628431712,0.0,0.0,0.0,0.0,0.05788076285714285,0.04041464128571429,0.03385622428571429,0.10656655099999998,0.02555420280372548,-0.04749368219833124,0.013490175364617229,-0.0085889182939212
35.0,3.0,0.06691127700139717,-0.02735479057003141,2.821081701474643e-05,0.09426606757142858,0.020130212777188954,0.03289066228711145,0.013643109429968587,0.01839271800139716,0.06691127700139717,-0.01744827428431713,-0.012362626570031413,-0.01763343928431713,-0.02735479057003141,0.0,0.0,0.0,0.0,0.05033893657142857,0.026005736,0.03602615728571429,0.09426606757142858,0.018497114721714447,-0.003975773504176244,-0.01451867146822801,-0.01628275873600378
35.0,4.0,0.03774176957282573,-0.03785494457003141,-0.00017376497423567458,0.07559671414285715,-0.03750620885044576,0.016715239429968585,0.03774176957282573,0.02079139428711144,0.034750734001397166,-0.014606232141459988,-0.015091423284317129,-0.03785494457003141,-0.021583332427174275,0.0,0.0,0.0,0.0,0.031321471571428575,0.05283319285714286,0.05864633885714285,0.056334066428571444,-0.021922341567520303,0.016310538495942106,-0.026118239364218667,-0.0005476372718209929
35.0,5.0,0.03834247628711145,-0.05994598671288855,-0.00029743286726701844,0.098288463,-0.02558458511177385,0.017135964287111442,0.03834247628711145,0.03397177328711144,0.015607191572825732,-0.017735010284317128,-0.02810555881288856,-0.0524961718557457,-0.012616305284317128,0.0,0.0,0.0,0.0,0.03487097457142857,0.06644803510000001,0.08646794514285713,0.02822349685714286,0.0075953910869555885,-0.05090565238563026,0.04914881276429642,-0.008209231438671298
35.0,6.0,0.10032738371568287,-0.0629417948557457,-0.0003843836953058308,0.16326917857142859,0.008280700112501163,0.040621015444254296,0.05425222400139716,0.05448347614425431,0.10032738371568287,-0.027844771855745704,-0.03679777528431712,-0.0629417948557457,-0.04881995528431713,0.0,0.0,0.0,0.0,0.0684657873,0.09104999928571428,0.11742527100000003,0.149147339,-0.02166623370226867,-0.018668470503325325,-0.01750910207870824,-0.03687668953905333
35.0,7.0,0.12543389300139718,-0.2142671458557457,-0.0005554424260754291,0.33970103885714287,0.07387652313167628,0.0780221894299686,0.12065872742996857,0.09384897371568289,0.12543389300139718,-0.09424835999860284,-0.1453256051700314,-0.1404455645700314,-0.2142671458557457,0.0,0.0,0.0,0.0,0.17227054942857145,0.2659843326,0.23429453828571428,0.33970103885714287,0.013702008567633466,0.12693772944883364,-0.01468547826739075,-0.047255127584167236
35.0,8.0,0.13772038771568287,-0.11352815914145999,-2.803677014592433e-05,0.2512485468571429,0.07375328048142904,0.13772038771568287,0.07222046285854003,0.03302668528711144,0.023799237044254296,-0.11352815914145999,-0.06231751814145998,-0.05901537242717426,-0.02097349989860284,0.0,0.0,0.0,0.0,0.2512485468571429,0.134537981,0.0920420577142857,0.04477273694285713,-0.052362469963925254,0.0878807906259326,-0.045704794701412046,0.019877554579953636
36.0,1.0,0.03993016969643695,-0.04340815855356306,8.06142874385352e-05,0.08333832825000001,-0.00549915530736933,0.03105642457143695,0.011373503496436947,0.037692856946436946,0.03993016969643695,-0.025606260053563052,-0.04340815855356306,-0.038761812553563056,-0.03307242055356306,0.0,0.0,0.0,0.0,0.056662684625,0.054781662050000006,0.0764546695,0.07300259025000001,0.016428550367845213,-0.09902476775740326,-0.013840051631079514,-0.008389343140477179
36.0,2.0,0.04243546444643694,-0.04447607630356305,0.0003785376812653551,0.08691154074999999,0.0038734668895349517,0.04205177869643695,0.033840407946436946,0.02631423919643695,0.04243546444643694,-0.04447607630356305,-0.039364387928563054,-0.03684263755356306,-0.023782643928563055,0.0,0.0,0.0,0.0,0.086527855,0.073204795875,0.06315687675000001,0.066218108375,-0.03302241657126704,-0.004496719660102455,-0.08241977490837293,0.0327617517645469
36.0,3.0,0.03985101869643695,-0.03272714005356305,2.279683643853895e-05,0.07257815875000001,-0.08428314516163621,0.028620787446436948,0.01935120803393695,0.011303019533936946,0.03985101869643695,-0.030526673803563057,-0.019337065803563053,-0.03179626317856305,-0.03272714005356305,0.0,0.0,0.0,0.0,0.059147461250000005,0.0386882738375,0.0430992827125,0.07257815875000001,-0.023572551505336457,0.033721949971630326,-0.07116668086540008,0.016916801061630474
36.0,4.0,0.05672132557143694,-0.02959723130356305,0.00028625775909100034,0.086318556875,-0.006252933701253759,0.008030713446436947,0.03779035832143694,0.05672132557143694,0.03127646994643695,-0.012832183178563054,-0.027916196303563054,-0.02959723130356305,-0.013658731678563057,0.0,0.0,0.0,0.0,0.020862896625000002,0.065706554625,0.086318556875,0.044935201625000004,-0.04129029675579503,-0.06864045345381331,-0.0076651736886694175,0.054531458040181835
36.0,5.0,0.03727935994643694,-0.034144287678563055,-0.0005639488403717568,0.071423647625,-0.024511639216887357,0.012686767583811947,0.021577311946436948,0.02672244094643695,0.02548872157143695,-0.014547491391063053,-0.023200950178563055,-0.034144287678563055,-0.023564720178563054,0.0,0.0,0.0,0.0,0.027234258974874997,0.044778262125,0.060866728625000005,0.04905344175,0.027695003628436302,-0.021046254870777395,0.02502123190105722,-0.02707566036858622
36.0,6.0,0.05561552494643694,-0.06096794755356305,-0.0005424945741692487,0.1165834725,-0.041937104888390184,0.05561552494643694,0.04593395494643694,0.01860295169643695,0.02649369969643695,-0.030328113803563053,-0.06096794755356305,-0.011909060428563054,-0.025149276928563054,0.0,0.0,0.0,0.0,0.08594363875,0.10690190249999999,0.030512012125,0.051642976625,0.03999641015516273,-0.08430021503527364,0.03760407405866313,0.0010686052037131959
36.0,7.0,0.049013513696436944,-0.04564486667856305,0.0001534334461707787,0.09465838037499999,0.009390498930216588,0.029132741196436947,0.018852981196436944,0.049013513696436944,0.029118324946436944,-0.02358038592856305,-0.04564486667856305,-0.03726027055356305,-0.014249927528563055,0.0,0.0,0.0,0.0,0.052713127124999995,0.064497847875,0.08627378424999999,0.043368252475,-0.014530338610478755,-0.02085442619470944,-0.015702635960059184,0.07981047323212814
36.0,8.0,0.03604388644643695,-0.055345121803563053,0.00019751751868054727,0.09138900825,-0.012119932823742727,0.03259624369643695,0.02686636779643695,0.028966811196436945,0.032125803696436944,-0.022581818303563057,-0.055345121803563053,-0.031717232553563054,-0.025258892516063055,0.0,0.0,0.0,0.0,0.055178062,0.0822114896,0.06068404375,0.0573846962125,0.0316462477957555,-0.08841286160705512,-0.08550401417959443,-0.002050690742544499
37.0,1.0,0.07613954666960208,-0.059703423330397916,0.0017072166018573588,0.13584297,0.044885148747543215,0.05128180416960209,0.041399640419602084,0.07613954666960208,0.042281180957102094,-0.03846914945539791,-0.030128343455397916,-0.059703423330397916,-0.03195785083039791,0.0,0.0,0.0,0.0,0.08975095362499999,0.071527983875,0.13584297,0.0742390317875,-0.05531179759217496,0.04709566171518779,0.12479914042233511,0.0029021386619920795
37.0,2.0,0.0966699866696021,-0.06889222333039792,0.0010218687801546076,0.16556221000000002,0.17013603637925057,0.0966699866696021,0.05311282041960209,0.05087542791960209,0.058121996669602084,-0.06889222333039792,-0.04681335458039791,-0.04324750333039792,-0.043844865830397914,0.0,0.0,0.0,0.0,0.16556221000000002,0.099926175,0.09412293125000001,0.1019668625,0.04010419736078302,-0.04409560939661701,0.15275681329375035,0.035998582161254435
37.0,3.0,0.08625332929460208,-0.05128148333039792,0.003313313764785996,0.137534812625,0.11074166168045414,0.03395461654460208,0.052968698419602084,0.041187735419602085,0.03596424579460209,-0.014087732330397914,-0.05128148333039792,-0.03235716133039791,-0.04255368458039791,0.0,0.0,0.0,0.0,0.048042348874999995,0.10425018175,0.07354489675,0.078517930375,0.044162656317526805,-0.012840986226357216,0.10834183649758865,0.07818508759480813
37.0,4.0,0.08919911666960209,-0.07555105458039792,0.001259431252911817,0.16475017125000002,0.25810636438594436,0.0686211004196021,0.05911794916960209,0.08919911666960209,0.04299640166960208,-0.05031436370539791,-0.057126749580397915,-0.07555105458039792,-0.014247853205397914,0.0,0.0,0.0,0.0,0.118935464125,0.11624469875000001,0.16475017125000002,0.05724425487499999,0.09591546233859706,0.05111671166222971,0.04443139253425367,0.08877164998397818
37.0,5.0,0.06310567291960209,-0.0721226383303979,4.5727942579483755e-05,0.13522831125,0.08312902790128596,0.06310567291960209,0.053146897919602094,0.034484420419602084,0.04606688554460209,-0.03590539083039791,-0.0721226383303979,-0.043766833330397915,-0.021358976830397915,0.0,0.0,0.0,0.0,0.09901106375,0.12526953625,0.07825125375,0.067425862375,0.022682712378523096,-0.05145726124687444,0.054920511513342166,0.06358160689052117
37.0,6.0,0.06854142291960208,-0.06870144208039793,0.0007331077633568087,0.137242865,0.08262829570671518,0.06854142291960208,0.039040214169602086,0.03313967991960209,0.03272228291960209,-0.06435709708039791,-0.026533617080397916,-0.029521388580397916,-0.03407225583039792,0.0,0.0,0.0,0.0,0.13289852,0.06557383125,0.0626610685,0.06679453875000001,0.06698276470901897,0.051801105390188784,0.004947707070328891,0.011067116162698582
37.0,7.0,0.09434244291960209,-0.10763586833039791,-0.0001090411330940863,0.20197831125,0.022031006178328642,0.04993802291960209,0.09434244291960209,0.04468179041960209,0.041563782794602086,-0.10763586833039791,-0.018071818830397914,-0.03608446220539792,-0.035695750830397915,0.0,0.0,0.0,0.0,0.15757389125,0.11241426175,0.080766252625,0.077259533625,-0.06726852578021242,0.1324081372700185,0.07450812368190267,-0.02008567457679654
37.0,8.0,0.07282383541960208,-0.09052337958039793,0.0026383772962458533,0.163347215,0.11384312992301349,0.05247999416960209,0.03700505254460208,0.03629113629460209,0.04406146541960209,-0.09052337958039793,-0.042007973330397914,-0.03988542333039791,-0.024810916830397912,0.0,0.0,0.0,0.0,0.14300337375000002,0.079013025875,0.076176559625,0.06887238225,-0.0737972291989234,0.014039098607168808,0.0023571939847136653,0.11350215827931494
38.0,1.0,0.0866206131047347,-0.0378624806452653,-1.9321025485059447e-06,0.12448309375000001,0.06820319879052969,0.0866206131047347,0.04078583435473469,0.015822797104734696,0.0415150043547347,-0.0378624806452653,-0.023597916895265306,-0.021136541895265305,-0.03146568939526531,0.0,0.0,0.0,0.0,0.12448309375000001,0.06438375125,0.036959339,0.07298069375000002,0.015280380532792799,0.018981542424391026,0.02159972154520596,-0.022225020028973065
38.0,2.0,0.0809120068547347,-0.04225437564526531,-0.0016787260073513246,0.1231663825,-0.0704021557246387,0.020855408229734695,0.0809120068547347,0.0362651593547347,0.0470678931047347,-0.04225437564526531,-0.0356883093952653,-0.020232259395265306,-0.026340799395265308,0.0,0.0,0.0,0.0,0.063109783875,0.11660031625,0.05649741875,0.07340869250000001,-0.13504357419830573,0.050166836152626765,-0.02283256352702752,0.003917385388265859
38.0,3.0,0.04262676810473469,-0.0573052518952653,-0.0015544692712734305,0.09993201999999998,-0.10227634641991008,0.024195319104734693,0.04262676810473469,0.014092297354734695,0.033923880604734696,-0.028463848145265307,-0.028954714395265306,-0.014952681145265306,-0.0573052518952653,0.0,0.0,0.0,0.0,0.05265916725,0.07158148249999999,0.0290449785,0.0912291325,-0.03572390668197908,0.04731079168781921,-0.030499963153604696,-0.10328535469475823
38.0,4.0,0.0472656993547347,-0.04525060314526531,-9.62490072867402e-05,0.09251630250000001,-0.016184714987475465,0.033470194354734695,0.03809072672973469,0.0426076093547347,0.0472656993547347,-0.04525060314526531,-0.0230796008952653,-0.034972218145265306,-0.038017915645265306,0.0,0.0,0.0,0.0,0.0787207975,0.06117032762499999,0.0775798275,0.08528361500000001,-0.10440575582696787,0.12144177609286567,-0.06057421219948022,0.04245381340118435
38.0,5.0,0.057239256854734695,-0.0363081656452653,-0.0010262847694514454,0.0935474225,-0.056741331639189346,-0.0037098153577653048,0.057239256854734695,0.0395292293547347,0.02051884585473469,-0.0363081656452653,-0.022866556770265306,-0.03629356314526531,-0.012809693145265305,0.0,0.0,0.0,0.0,0.0325983502875,0.080105813625,0.07582279250000001,0.033328539,-0.1377639940606147,0.02788492268317129,-0.008026266925808337,-0.015967706258872255
38.0,6.0,0.0545174331047347,-0.0568446668952653,-0.0006411933154767014,0.11136209999999999,0.07309000716350647,0.02752616135473469,0.027273413729734696,0.03280968297973469,0.0545174331047347,-0.021382113145265304,-0.019825733145265305,-0.0568446668952653,-0.029281173145265307,0.0,0.0,0.0,0.0,0.048908274499999994,0.047099146875,0.08965434987499998,0.08379860625,-0.0003685504702110598,0.010680609854375855,-0.02530779299289912,0.04351304834087433
38.0,7.0,0.053980404354734696,-0.03458374814526531,0.0010502287784322124,0.0885641525,0.11911515247519144,0.0345989868547347,0.018754887604734698,0.04023756185473469,0.053980404354734696,-0.030660070645265308,-0.03357153439526531,-0.03458374814526531,-0.03358846564526531,0.0,0.0,0.0,0.0,0.06525905750000001,0.052326422000000004,0.07482131,0.08756887000000001,0.08414274587758083,-0.025587359676019772,0.02349046791834988,0.0021590071648455583
38.0,8.0,0.0649822831047347,-0.08479616564526532,-0.0009528728514482542,0.14977844875000002,-0.033076419176377325,0.034693816854734695,0.032532584354734696,0.06382768560473469,0.0649822831047347,-0.03788995689526531,-0.08479616564526532,-0.03418054064526531,-0.04811113439526531,0.0,0.0,0.0,0.0,0.07258377375,0.11732875000000001,0.09800822625,0.11309341750000002,-0.09561059190472403,-0.0926874339857721,0.05549664837249502,0.051732613437192966
39.0,1.0,0.28624975142857145,-0.08638596285714284,0.07338225827495033,0.3726357142857143,6.739064705180904,0.17237541714285715,0.28624975142857145,0.1319640827142857,0.14177200857142855,-0.05906527857142857,-0.08638596285714284,0.009359944285714286,-0.00567509,0.0,0.0,0.0,0.0,0.23144069571428572,0.3726357142857143,0.12260413842857142,0.14744709857142854,1.0669222346125138,1.1071805562888555,2.571303375223569,1.469523144898825
39.0,2.0,0.32628332142857147,-0.14603855142857142,0.07663048138517425,0.4723218728571429,7.388624614949117,0.19267421571428572,0.32628332142857147,0.16355502414285716,0.17949468857142858,0.03081324857142858,-0.023820226042857138,-0.002289941428571425,-0.14603855142857142,0.0,0.0,0.0,0.0,0.16186096714285714,0.35010354747142863,0.16584496557142858,0.32553324,1.6417648353565117,3.0925169374281554,0.700566997663931,1.4374648169236561
39.0,3.0,0.1530115985714286,-0.024137517142857133,0.07327761502554168,0.17714911571428574,6.251628352255913,0.13714855314285715,0.10066539495714286,0.11207255828571427,0.14571117,0.004858064285714288,0.04136059914285715,0.037732945000000004,-0.024137517142857133,0.0,0.0,0.0,0.0,0.13229048885714287,0.05930479581428571,0.07433961328571427,0.16984868714285714,1.4772857123018028,0.866527037263187,1.766448849262651,1.5960572295831439
39.0,4.0,0.18421556857142857,-0.03810181428571428,0.0735237074085617,0.22231738285714286,4.653317843213762,0.14668532,0.1663226242857143,0.18421556857142857,0.16626574000000002,-0.010222078571428568,-0.03502853428571428,-0.03810181428571428,0.027275465285714288,0.0,0.0,0.0,0.0,0.15690739857142857,0.20135115857142857,0.22231738285714286,0.13899027471428574,1.1843552986591983,1.092902478495828,0.9292574092787367,0.8008105334611368
39.0,5.0,0.30649559285714284,-0.1209763552857143,0.07631393116400235,0.42747194814285716,7.2817394206887585,0.30649559285714284,0.15056555714285716,0.11323716714285716,0.12072076857142858,-0.1209763552857143,0.013318462620000002,0.030555738857142852,-0.0027893185714285653,0.0,0.0,0.0,0.0,0.42747194814285716,0.13724709452285716,0.0826814282857143,0.12351008714285715,2.1767172680329705,2.2639317635999427,0.8788844922529151,1.5918513990366412
39.0,6.0,0.1498821442857143,-0.027213127142857146,0.07151022398300766,0.17709527142857145,3.869766366215383,0.1498821442857143,0.13671455671428573,0.13902046285714287,0.1471295067142857,-0.027213127142857146,0.03001811885714286,0.006626708571428573,-0.0004005942857142857,0.0,0.0,0.0,0.0,0.17709527142857145,0.10669643785714286,0.1323937542857143,0.147530101,0.6626379181759889,1.1701993200298073,0.8316450002190914,0.6108284600425236
39.0,7.0,0.14434435257142855,0.009528969142857144,0.07565379609821322,0.1348153834285714,6.470845270696289,0.14434435257142855,0.13144042457142857,0.13073634257142858,0.10776517685714285,0.03303153642857143,0.009528969142857144,0.02120382,0.010133594285714283,0.0,0.0,0.0,0.0,0.11131281614285712,0.12191145542857143,0.10953252257142858,0.09763158257142857,1.5905177433111048,1.5411041584069036,1.510835609068856,1.3283799223031347
39.0,8.0,0.18024539357142855,-0.10998953142857144,0.07364982548762809,0.290234925,6.765770618720252,0.1611118157142857,0.16610104285714283,0.17845438857142856,0.14788183285714288,0.005125829999999998,0.08436670772857144,-0.10998953142857144,-0.01648553,0.0,0.0,0.0,0.0,0.1559859857142857,0.0817343351285714,0.28844392,0.16436736285714287,2.1408405741913956,0.4113020037602793,1.625954715592726,1.9620036625292558
40.0,1.0,0.0,0.0,0.0,0.0,0.0,,,,,,,,,,,,,,,,,,,,
40.0,2.0,0.0,0.0,0.0,0.0,0.0,,,,,,,,,,,,,,,,,,,,
40.0,3.0,0.0,0.0,0.0,0.0,0.0,,,,,,,,,,,,,,,,,,,,
40.0,4.0,0.0,0.0,0.0,0.0,0.0,,,,,,,,,,,,,,,,,,,,
40.0,5.0,0.0,0.0,0.0,0.0,0.0,,,,,,,,,,,,,,,,,,,,
40.0,6.0,0.0,0.0,0.0,0.0,0.0,,,,,,,,,,,,,,,,,,,,
40.0,7.0,0.0,0.0,0.0,0.0,0.0,,,,,,,,,,,,,,,,,,,,
40.0,8.0,0.0,0.0,0.0,0.0,0.0,,,,,,,,,,,,,,,,,,,,
41.0,1.0,0.1551729677488165,-0.09466475600118349,0.0021160487854370792,0.24983772375,0.2733164342543475,0.1551729677488165,0.0538360602488165,0.0793368964988165,0.07522934274881651,-0.09466475600118349,-0.0744226135011835,-0.06709518725118349,-0.0467612531261835,0.0,0.0,0.0,0.0,0.24983772375,0.12825867375,0.14643208375,0.12199059587500001,0.1916293174118261,-0.05448004972442938,0.038360369156981516,0.002129625509196334
41.0,2.0,0.09671121274881651,-0.0793208857511835,-0.00027044132671824155,0.1760320985,-0.1915312972254544,0.0324795979988165,0.09671121274881651,0.053701415498816504,0.04689668624881651,-0.052466013501183496,-0.044179327251183495,-0.06307107350118349,-0.0793208857511835,0.0,0.0,0.0,0.0,0.08494561149999999,0.14089054,0.116772489,0.126217572,-0.14840089427152656,-0.05802794555283984,-0.06270241840809634,-0.10247090930319033
41.0,3.0,0.1038416452488165,-0.09311933100118348,9.638406661673649e-05,0.19696097624999997,-0.009181083688389186,0.0901018694988165,0.05095479056131651,0.1038416452488165,0.0414488206238165,-0.0803023247261835,-0.046898116001183494,-0.08256537225118349,-0.0554485575011835,0.0,0.0,0.0,0.0,0.170404194225,0.09785290656250001,0.1864070175,0.096897378125,-0.1585445178588875,0.14224546359972895,0.21264622584093656,-0.0014244598819708187
41.0,4.0,0.0659840424363165,-0.0853335497511835,-0.001016920534237201,0.15131759218750002,-0.07846363717127755,0.025346306873816504,0.04460445649881651,0.056173722498816504,0.0659840424363165,-0.0338961122511835,-0.0556426660011835,-0.07505826225118349,-0.0853335497511835,0.0,0.0,0.0,0.0,0.059242419125,0.10024712250000001,0.13123198475,0.15131759218750002,0.019304178625736634,-0.030819875034199806,0.09858363306289908,-0.13732159389817528
41.0,5.0,0.0966395714988165,-0.09267598100118349,-0.0011490485644658148,0.18931555249999998,-0.9735431236886987,0.0694157352488165,0.07116574974881651,0.0657658277488165,0.0463049759988165,-0.0460844951261835,-0.0804390172511835,-0.09267598100118349,-0.047565054376183497,0.0,0.0,0.0,0.0,0.115500230375,0.15160476700000003,0.15844180874999997,0.093870030375,0.03984388098014385,-0.017084117385086334,-0.10150680356495072,0.04057505840763658
41.0,6.0,0.1315613302488165,-0.19834784350118348,-0.00025413873942404993,0.32990917374999995,-0.13753557766127228,0.0624344533738165,0.0828556761238165,0.1315613302488165,0.057908571373816504,-0.0440097745011835,-0.0630696493761835,-0.19834784350118348,-0.0887847022511835,0.0,0.0,0.0,0.0,0.10644422787499999,0.1459253255,0.32990917374999995,0.146693273625,-0.05536659183365637,0.07901906325742533,0.0009854569207100455,0.010213451073256163
41.0,7.0,0.06341055149881651,-0.062406064251183495,-0.0005608408197655906,0.12581661575,-0.15747586694197335,0.0525323279988165,0.0409616827488165,0.061234294248816504,0.06341055149881651,-0.0461046397511835,-0.03994868537618349,-0.05871879875118349,-0.062406064251183495,0.0,0.0,0.0,0.0,0.09863696775,0.08091036812499999,0.119953093,0.12581661575,-0.0342962459638612,-0.05983274367280197,-0.018566443149246437,-0.024079101218350746
41.0,8.0,0.09026891149881651,-0.09583951225118349,-0.00020788369236009977,0.18610842375,-0.08312409170443298,0.0607484339988165,0.0856903407488165,0.0818527702488165,0.09026891149881651,-0.0463429997511835,-0.09583951225118349,-0.0957527583761835,-0.060425655626183496,0.0,0.0,0.0,0.0,0.10709143374999999,0.181529853,0.177605528625,0.150694567125,-0.12053833389679326,0.19822312799965924,-0.04360975400648215,0.035825908194640384
44.0,1.0,0.08968752885386073,-0.06226666239613928,-0.0012009349817066837,0.15195419125,-0.12580488427979702,0.04249570635386073,0.01441383147886073,0.061191327216360725,0.08968752885386073,-0.05090959364613928,-0.020045784146139268,-0.05598565239613926,-0.06226666239613928,0.0,0.0,0.0,0.0,0.0934053,0.034459615624999995,0.11717697961249998,0.15195419125,-0.08771656737166433,-0.042851960482089585,-0.014772965178952824,0.09565821866716531
44.0,2.0,0.059133847603860736,-0.07516314989613927,0.00024782130357455315,0.13429699750000001,0.1515895787916888,0.059133847603860736,0.030181836353860732,0.03483901097886073,0.04238767510386073,-0.03761354989613926,-0.030590504896139268,-0.02439137677113927,-0.034940850771139266,0.0,0.0,0.0,0.0,0.0967473975,0.06077234125,0.05923038775,0.077328525875,0.1046154555961448,-0.04454144696172993,0.002626203017646416,0.0678255107063023
44.0,3.0,0.09327945010386074,-0.07209672489613926,0.001955269003654734,0.16537617500000001,0.1982964750759756,0.09327945010386074,0.029767557603860732,0.04550286510386073,0.031113982353860734,-0.07209672489613926,-0.03187405614613927,-0.03150978239613927,-0.05405634114613927,0.0,0.0,0.0,0.0,0.16537617500000001,0.061641613750000004,0.0770126475,0.0851703235,0.08248091116093852,-0.018284613538151365,0.027494832063821556,0.08370815314711733
44.0,4.0,0.05009075885386074,-0.057757664896139274,0.0016101045676671067,0.10784842375,0.06435824079413893,0.05009075885386074,0.035083187853860734,0.02891957960386073,0.03600802385386073,-0.057757664896139274,-0.03154187739613927,-0.051659549896139266,-0.023505118277389266,0.0,0.0,0.0,0.0,0.10784842375,0.06662506525,0.0805791295,0.05951314213125,0.06964223336213743,0.003100259935676669,-0.04831175063097813,0.0004915723283453882
44.0,5.0,0.07781185010386074,-0.09173264614613927,-0.0009645319742256912,0.16954449625,-0.14118738847567464,0.07294505760386073,0.07357009385386075,0.047615872603860736,0.03158077372886073,-0.04131549364613927,-0.09173264614613927,-0.040096439396139265,-0.041792519896139274,0.0,0.0,0.0,0.0,0.11426055125000001,0.16530274,0.087712312,0.073373293625,-0.0264131849978807,-0.16993077242082227,0.05525856838820753,-0.11603474465096343
44.0,6.0,0.07335911642886074,-0.11649136239613928,-0.0001461123505828842,0.189850478825,-0.05548035627007501,0.07335911642886074,0.041722580103860735,0.02994168522886073,0.020352279491360734,-0.11649136239613928,-0.05044344739613926,-0.05726755039613926,-0.036255544896139275,0.0,0.0,0.0,0.0,0.189850478825,0.0921660275,0.08720923562499999,0.056607824387500005,0.0772220255517315,0.06490040526569263,-0.0034070066812482425,-0.0877185034793026
44.0,7.0,0.09747916135386075,-0.41310211114613926,-0.0006735213739717835,0.5105812725000001,-0.08664085285494369,0.06298106260386074,0.08981349510386073,0.09747916135386075,0.04091489635386073,-0.06821711364613926,-0.07793004114613927,-0.41310211114613926,-0.02738012677113927,0.0,0.0,0.0,0.0,0.13119817625000002,0.16774353625,0.5105812725000001,0.068295023125,-0.018252774778345082,0.04462400291302496,-0.21335407144512247,0.026774905218257282
44.0,8.0,0.06774343635386072,-0.08746621364613928,-0.003407352666726277,0.15520965,-0.13795242339050098,0.04660892260386073,0.06774343635386072,0.05885720760386074,0.04077318635386073,-0.039116873646139264,-0.08746621364613928,-0.06940898114613928,-0.07594171864613926,0.0,0.0,0.0,0.0,0.08572579624999999,0.15520965,0.12826618875,0.11671490499999998,-0.02144764069850326,0.09495252166149012,-0.12601875987726252,-0.18723521885567954
45.0,1.0,0.06066802243065835,-0.0706077774264845,5.792223792377843e-05,0.13127579985714286,0.10721506368574932,0.06066802243065835,0.049946769144944066,0.0328146845735155,0.020720800002086925,-0.06717262414077022,-0.012560455755055933,-0.024735690769341644,-0.03352099128362736,0.0,0.0,0.0,0.0,0.12784064657142857,0.06250722489999999,0.057550375342857146,0.05424179128571428,0.008973554645731824,0.14297560867734424,0.04022893551286899,-0.0358133616185259
45.0,2.0,0.046883621716372635,-0.06882089014077021,0.0007443146465532152,0.11570451185714284,0.003283335561685273,0.03774708600208693,0.03400140428780121,0.01451955314494407,0.04254544585922977,-0.03381222414077022,-0.025037776697913076,-0.018637220112198788,-0.06882089014077021,0.0,0.0,0.0,0.0,0.07155931014285714,0.059039180985714285,0.033156773257142856,0.11136633599999998,0.0472552793213633,0.02530724308857426,0.0015833033216822966,-0.08015251573047202
45.0,3.0,0.03837145200208693,-0.03989488356934164,-0.0008799418026835931,0.07826633557142856,-0.14761312881052507,0.02496980981637264,0.02906976243065835,0.01916711443065835,0.03837145200208693,-0.03338103128362736,-0.0281889634264845,-0.03989488356934164,-0.035200480812198794,0.0,0.0,0.0,0.0,0.0583508411,0.05725872585714285,0.05906199799999999,0.07357193281428573,-0.06551164203416747,-0.03553302310751817,-0.04356050489351713,-0.06028058163308106
45.0,4.0,0.03454872971637264,-0.03248812819791307,0.0010318085569942063,0.06703685791428571,0.019092791915575148,0.017351411716372642,0.034517953573515496,0.028034522530658353,0.03243958228780121,-0.008334791526484505,-0.03052216085505593,-0.03248812819791307,-0.01663176912605593,0.0,0.0,0.0,0.0,0.02568620324285715,0.06504011442857142,0.06052265072857142,0.04907135141385714,0.01786821077922354,-0.04325509709055836,0.022177359473057927,-0.008880224263112933
45.0,5.0,0.05829210385922978,-0.04995994099791307,-0.0007371192952589485,0.10825204485714285,-0.021565047177068905,0.05829210385922978,0.025550560573515495,0.012763096430658354,0.02415016754494407,-0.04386656599791307,-0.03805594856934164,-0.015040166569341646,-0.01897620014077022,0.0,0.0,0.0,0.0,0.10215866985714285,0.06360650914285713,0.027803263,0.04312636768571429,0.026328995432804286,-0.017852472453550955,0.02729484470094207,0.018640206776030708
45.0,6.0,0.036938436859229776,-0.0425032626264845,3.893677662489051e-05,0.07944169948571428,0.01598065897397854,0.02834698171637263,0.0346221975735155,0.036938436859229776,0.026238459144944073,-0.01977009385505593,-0.0425032626264845,-0.0304058374264845,-0.02307155871219879,0.0,0.0,0.0,0.0,0.048117075571428566,0.0771254602,0.06734427428571427,0.04931001785714286,-0.02112366486542404,0.004443660613734593,0.04416680589128376,-0.013914622992228634
45.0,7.0,0.042405114859229785,-0.05034046485505593,-7.976260839729264e-05,0.09274557971428571,-0.012120540924207335,0.04210762643065836,0.03696829443065835,0.035597172573515495,0.03794643514494407,-0.03902982328362736,-0.05034046485505593,-0.03827870156934165,-0.03872171785505594,0.0,0.0,0.0,0.0,0.08113744971428571,0.08730875928571427,0.07387587414285715,0.07666815300000002,0.026202035650524813,-0.09793346514017645,0.00042107208494160386,-0.055826061538402055
45.0,8.0,0.05790863100208693,-0.05189853899791307,0.0011020849105706624,0.10980717000000001,0.09070496413154117,0.021626377102086928,0.05790863100208693,0.04126981671637264,0.05735111985922979,-0.015093225583627358,-0.05189853899791307,-0.039046909712198784,-0.031041335426484497,0.0,0.0,0.0,0.0,0.03671960268571429,0.10980717000000001,0.08031672642857143,0.0883924552857143,0.016980990733753892,0.01883389754085818,-0.07011055682765739,0.04502495477902341
46.0,1.0,0.08345587214352486,-0.05543535960647515,-0.0007067948753408118,0.13889123175,-0.042603601569943916,0.07712670114352485,0.08345587214352486,0.02831887114352485,0.04362467089352485,-0.042480622206475145,-0.05543535960647515,-0.030865014606475144,-0.028654443856475153,0.0,0.0,0.0,0.0,0.11960732334999999,0.13889123175,0.05918388575,0.07227911475,-0.11261728362972687,0.07967636113519594,-0.043533242026100295,0.0161250261664235
46.0,2.0,0.09168720926852486,-0.04070516260647515,0.0007898992306411329,0.13239237187500003,0.07459810679963551,0.057159519143524865,0.038225497393524856,0.09168720926852486,0.04888017564352485,-0.035232565856475155,-0.035677763731475146,-0.04070516260647515,-0.01908004460647515,0.0,0.0,0.0,0.0,0.09239208500000001,0.07390326112500001,0.13239237187500003,0.06796022025,0.03884138404810576,-0.10665334230795795,0.01015513041327519,0.02171632067038752
46.0,3.0,0.10328012039352484,-0.06367429035647515,0.00026034010120832326,0.16695441075,0.10583215610617884,0.05246187289352485,0.05647250664352485,0.054677609143524854,0.10328012039352484,-0.04483201660647515,-0.05411624335647515,-0.06367429035647515,-0.05261896960647515,0.0,0.0,0.0,0.0,0.09729388950000001,0.11058875,0.1183518995,0.15589909,-0.05149554845493406,0.14002926905675428,-0.047048907926910494,0.04606631015567289
46.0,4.0,0.04830609126852485,-0.050541619856475144,0.0012757701621474158,0.09884771112499999,0.16333858670920406,0.04830609126852485,0.04535413576852485,0.04775430276852485,0.044107432893524846,-0.04248347846897514,-0.02767382910647515,-0.03665664223147515,-0.03157387985647515,0.0,0.0,0.0,0.0,0.09078956973749999,0.073027964875,0.084410945,0.07568131275,0.0801373986577361,0.0639650361371655,0.0473925481788742,0.03691516182779571
46.0,5.0,0.06713330164352485,-0.06390002460647515,-0.0004798127468025286,0.13103332625,0.04600606177153299,0.039629752893524856,0.04769893039352486,0.06713330164352485,0.05567396526852485,-0.033134975856475145,-0.06390002460647515,-0.03708522698147516,-0.032827997106475146,0.0,0.0,0.0,0.0,0.07276472875000001,0.111598955,0.104218528625,0.08850196237499999,-0.016154188758157228,-0.11456435318658836,0.04358193420446166,-0.03299803797974757
46.0,6.0,0.07721616301852485,-0.07248095835647514,-0.0005692609190935453,0.149697121375,-0.08844332865216113,0.061336564143524855,0.07721616301852485,0.041796366768524856,0.05770582914352485,-0.05907673860647515,-0.04772809373147515,-0.07248095835647514,-0.05210363085647514,0.0,0.0,0.0,0.0,0.12041330275,0.12494425675000001,0.114277325125,0.10980946,0.04809160496389242,0.03517319056503117,0.01628085533523617,-0.0968132706946612
46.0,7.0,0.05300652126852485,-0.06399003460647515,5.336116098080581e-05,0.11699655587499999,0.0681854751529542,0.036505881643524855,0.03548577664352485,0.05263417539352485,0.05300652126852485,-0.044090304606475145,-0.025816677231475144,-0.06399003460647515,-0.03481971945647514,0.0,0.0,0.0,0.0,0.08059618625000001,0.061302453874999996,0.11662421,0.08782624072499999,0.05887291289481557,-0.03796093360991383,0.026356055765529074,-0.02365821692548309
46.0,8.0,0.060742450393524855,-0.08855814760647514,-0.0007222547426297329,0.149300598,0.02688144163576565,0.04088192139352485,0.03201315914352485,0.06024783664352485,0.054960212268524856,-0.036410142231475144,-0.028014355106475142,-0.08855814760647514,-0.07015275916897515,0.0,0.0,0.0,0.0,0.07729206362499999,0.06002751425,0.14880598425,0.1251129714375,0.06122474602600642,-0.010171765751989232,-0.04048456088812989,-0.04069007299865504
47.0,1.0,0.06373774399736494,-0.06310453191692078,0.0003136858263077515,0.1268422759142857,0.02449056468860093,0.06373774399736494,0.020286178654507794,0.014772558368793506,0.023585351940222078,-0.026895653631206492,-0.017396390202635063,-0.010020063202635062,-0.06310453191692078,0.0,0.0,0.0,0.0,0.09063339762857144,0.037682568857142856,0.02479262157142857,0.08668988385714285,0.029493509307045626,-0.03447897348537056,0.016030249319919292,-0.025777998894922126
47.0,2.0,0.04909468794022207,-0.04232331920263507,0.001220228263353485,0.09141800714285714,0.017396700842219247,0.030822613511650648,0.04607022451165065,0.005223866640222079,0.02071880904022208,-0.02671731048834935,-0.04232331920263507,-0.024352608988349348,-0.024548948202635066,0.0,0.0,0.0,0.0,0.057539924,0.08839354371428572,0.02957647562857143,0.04526775724285714,-0.0009685442575812081,0.006221507834161075,-0.08649418673585038,0.004178178162137551
47.0,3.0,0.037693323654507796,-0.044230194915492196,-2.0595371697685474e-05,0.08192351856999999,-0.04294237850946648,0.037693323654507796,0.022617038225936362,0.020282464940222084,0.022909757368793505,-0.044230194915492196,-0.017989807988349347,-0.02764845205977792,-0.02083257991692078,0.0,0.0,0.0,0.0,0.08192351856999999,0.04060684621428571,0.047930917,0.043742337285714285,-0.009777161223945712,-0.04249722993636937,0.007092281562459377,-0.051610289011242226
47.0,4.0,0.05534629694022208,-0.1147906996312065,-0.0002616443529120673,0.17013699657142858,-0.03888159763585004,0.029817577225936365,0.019523729083079224,0.05534629694022208,0.01875023494022208,-0.03604794380263506,-0.015569785774063635,-0.1147906996312065,-0.019273690916920775,0.0,0.0,0.0,0.0,0.06586552102857143,0.03509351485714286,0.17013699657142858,0.03802392585714286,-0.06473558356029055,-0.01950932214646115,0.002812655953234544,0.012540053201570506
47.0,5.0,0.04164523622593636,-0.07945212220263506,0.0005387904468549077,0.12109735842857142,0.01137825260148679,0.023061539225936366,0.03187383294022207,0.03292155351165065,0.03608771836879351,-0.01979908273120649,-0.03018921577406363,-0.03975145360263506,-0.07945212220263506,0.0,0.0,0.0,0.0,0.04286062195714285,0.0620630487142857,0.0726730071142857,0.11553984057142858,-0.011060543844548167,-0.026987173272606448,0.04266257730687878,-0.10368599929501597
47.0,6.0,0.0539192153687935,-0.053838356488349344,-0.00036190791134424076,0.10775757185714285,-0.0928686641493061,0.0539192153687935,0.029102001654507794,0.05130732136879351,0.03348297739736494,-0.02535256234549221,-0.053838356488349344,-0.04950518163120649,-0.0461650936312065,0.0,0.0,0.0,0.0,0.07927177771428572,0.08294035814285713,0.100812503,0.07964807102857144,0.04269075225808451,-0.11271795886692207,-0.004841444246068,-0.023961105219068985
47.0,7.0,0.056235912654507794,-0.06078537134549221,-0.00021383447219584824,0.117021284,-0.05451254042405005,0.029651643083079222,0.019756429311650652,0.056235912654507794,0.04496453451165065,-0.033869464916920784,-0.03268227748834935,-0.06078537134549221,-0.030176476631206487,0.0,0.0,0.0,0.0,0.063521108,0.0524387068,0.117021284,0.07514101114285714,-0.05725171137439646,-0.06925643228766562,-0.0429214638912119,-0.019754480583170742
47.0,8.0,0.06969175936879352,-0.0760004049169208,0.001129646770906369,0.1456921642857143,0.12850244863336002,0.02651289294022208,0.06969175936879352,0.031232105083079224,0.05132339265450779,-0.026623930631206494,-0.0760004049169208,-0.03939372950263507,-0.04185941368834935,0.0,0.0,0.0,0.0,0.05313682357142857,0.1456921642857143,0.0706258345857143,0.09318280634285714,-0.06186765879818302,-0.02272375193586892,-0.016013402256345833,0.11145575318763452
48.0,1.0,0.09009146138451922,-0.05807652004405221,-0.0006295451142991531,0.14816798142857143,-0.062088351342378716,0.05223288852737638,0.09009146138451922,0.041591872813090645,0.044553159955947795,-0.048360272901195066,-0.056862518615480785,-0.05807652004405221,-0.039453912901195064,0.0,0.0,0.0,0.0,0.10059316142857144,0.14695398,0.09966839285714285,0.08400707285714286,-0.09033467938373589,-0.02490442037592905,-0.09040719266163491,0.011848063568760385
48.0,2.0,0.06942120424166207,-0.08164065575833793,-0.0001894384907785611,0.15106186,-0.027341297169210077,0.020872104098804932,0.0544405356702335,0.06942120424166207,0.06134819424166209,-0.04014507847262364,-0.03257068932976649,-0.08164065575833793,-0.028456566901195062,0.0,0.0,0.0,0.0,0.061017182571428574,0.087011225,0.15106186,0.08980476114285715,-0.07636651371833478,0.018609775391745985,-0.1516932058464837,0.11213592375856124
48.0,3.0,0.03474782124166208,-0.05666858147262364,-0.0005735181143997572,0.09141640271428572,0.0026962438387477354,0.02017665338451922,0.03188508538451922,0.03474782124166208,0.029624615098804936,-0.020508384329766493,-0.05666858147262364,-0.02854847790119507,-0.028339944901195065,0.0,0.0,0.0,0.0,0.040685037714285714,0.08855366685714286,0.06329629914285714,0.05796456,-0.006006781269720075,0.01914353415813085,0.0533067551879109,-0.04307914878830728
48.0,4.0,0.07008935281309066,-0.0786893243297665,-0.000897987451256446,0.14877867714285714,-0.0057701207879066185,0.03384468838451922,0.024791303098804934,0.048495478527376366,0.07008935281309066,-0.07125022575833792,-0.06395701861548077,-0.0786893243297665,-0.05406319861548078,0.0,0.0,0.0,0.0,0.10509491414285714,0.0887483217142857,0.12718480285714287,0.12415255142857143,0.011797594664112232,-0.07201003694906216,-0.10822902442920229,-0.009890963065153024
48.0,5.0,0.05957548138451923,-0.07377279004405221,-0.0005311477217641036,0.13334827142857145,0.010996836716200775,0.01460961881309065,0.03776378767023351,0.05252262424166208,0.04578245838451922,-0.019682320901195063,-0.034911799186909356,-0.07377279004405221,-0.03978932047262363,0.0,0.0,0.0,0.0,0.034291939714285714,0.07267558685714287,0.12629541428571428,0.08557177885714284,-0.03770340131892389,0.015494889979568549,-0.09891637022373607,-0.04010861804682145
48.0,6.0,0.0486441856702335,-0.04874755175833793,-6.324934911272583e-06,0.09739173742857143,0.12414500196190885,0.03513681295594779,0.02414500438451922,0.032602434098804936,0.0486441856702335,-0.02578267161548078,-0.018201174186909353,-0.03122968832976649,-0.04874755175833793,0.0,0.0,0.0,0.0,0.06091948457142857,0.04234617857142857,0.06383212242857142,0.09739173742857143,0.054253215329026265,0.01881549509591884,-0.007283110356317818,-0.005685012287638125
48.0,7.0,0.05027919209880494,-0.09715905718690933,-0.0008387307710582191,0.14743824928571425,0.029651962097660967,0.03356480038451922,0.030525353527376363,0.03250836038451922,0.050050915098804945,-0.09715905718690933,-0.030434547329766495,-0.04358463847262364,-0.048669809186909344,0.0,0.0,0.0,0.0,0.13072385757142854,0.060959900857142854,0.07609299885714285,0.0987207242857143,-0.004825259451007799,-0.02023802593731222,-0.030232638243763765,0.00395598257804524
48.0,8.0,0.048129909527376356,-0.045809007758337926,0.0009197241199890377,0.09393891728571428,0.056428318960368457,0.04553933852737636,0.04672416852737636,0.048129909527376356,0.043017874241662084,-0.027136106044052206,-0.023211257329766498,-0.025481230615480778,-0.045809007758337926,0.0,0.0,0.0,0.0,0.07267544457142858,0.06993542585714285,0.07361114014285713,0.08882688200000001,0.013813068883890403,0.028025182937624807,0.011804927831410614,-0.036282816227193426
49.0,1.0,0.12920111157047362,-0.2887392809295264,-0.000641804872824888,0.41794039250000004,0.08164403529980528,0.12920111157047362,0.0808792958204736,0.06580902894547361,0.03309459644547361,-0.2887392809295264,-0.0936052908045264,-0.10411298509202639,-0.021639936317026393,0.0,0.0,0.0,0.0,0.41794039250000004,0.174484586625,0.1699220140375,0.05473453276250001,-0.052035690600332335,0.11223575302361523,-0.13592586459835762,0.07981303850905483
49.0,2.0,0.07983380157047361,-0.08533011217952638,0.0011477483698763386,0.16516391375,0.13820789334240846,0.07983380157047361,0.0695952890704736,0.06477931257047362,0.02850887944547361,-0.0658656946795264,-0.08533011217952638,-0.028043519929526393,-0.04027473980452639,0.0,0.0,0.0,0.0,0.14569949625,0.15492540124999998,0.09282283250000001,0.06878361925,0.01996207070088664,-0.0481873204704347,0.15406266766787424,0.011807683556188036
49.0,3.0,0.053375870320473605,-0.04987224042952639,-0.000658545419273049,0.10324811075,0.014575091183685163,0.053375870320473605,0.038427373820473607,0.035596391195473615,0.04639904532047361,-0.04576249842952639,-0.027393372304526386,-0.030354531554526387,-0.04987224042952639,0.0,0.0,0.0,0.0,0.09913836875,0.065820746125,0.06595092275,0.09627128575,0.05431812013601425,0.04229101368066672,-0.047739132000296045,0.0028369400735456796
49.0,4.0,0.06727640782047362,-0.05182181842952639,0.0007797670170067887,0.11909822625000001,0.064860574287229,0.0643994253204736,0.06727640782047362,0.02693748744547361,0.02412462050797361,-0.03840301455452639,-0.04788475717952638,-0.027432995679526388,-0.05182181842952639,0.0,0.0,0.0,0.0,0.10280243987499998,0.115161165,0.054370483124999994,0.0759464389375,-0.02561262349103277,0.11016660756115962,0.05635969089403359,-0.10386614137168872
49.0,5.0,0.046259459070473616,-0.0499719783045264,0.0005416240061402338,0.096231437375,0.10196150198784693,0.046259459070473616,0.03830160057047361,0.021194483945473613,0.044916342820473604,-0.0499719783045264,-0.03807897680452639,-0.04515112592952639,-0.029246279054526394,0.0,0.0,0.0,0.0,0.096231437375,0.07638057737500001,0.066345609875,0.074162621875,0.06694174867881134,-0.050771971432306884,-0.07352703730023877,0.1331515129004638
49.0,6.0,0.07514580532047362,-0.07189806592952638,-9.912919583204629e-05,0.14704387125,-4.710616130693124e-06,0.03992274944547361,0.049361096570473606,0.07514580532047362,0.06930819782047361,-0.02045824884202639,-0.0548819909295264,-0.07189806592952638,-0.06209898292952639,0.0,0.0,0.0,0.0,0.0603809982875,0.1042430875,0.14704387125,0.13140718075,0.07197347210222728,-0.05096807625829061,-0.07964155346827571,-0.10174584689700117
49.0,7.0,0.05650939219547361,-0.061107454679526385,0.00011517344013797121,0.11761684687499999,-0.010491642108325497,0.05650939219547361,0.056038376570473614,0.015158549195473613,0.01912221369547361,-0.061107454679526385,-0.0455427966795264,-0.015477488917026388,-0.04441640117952639,0.0,0.0,0.0,0.0,0.11761684687499999,0.10158117325000002,0.0306360381125,0.063538614875,-0.13183753755908167,0.0714775277637521,0.05637344403939479,-0.033465915851135106
49.0,8.0,0.0693784703204736,-0.08046051842952641,0.0013842644237343257,0.14983898875,0.08894577566924225,0.0692031765704736,0.02414443769547361,0.0637809465704736,0.034324459070473615,-0.07575316630452639,-0.03523479217952639,-0.08046051842952641,-0.024751958304526388,0.0,0.0,0.0,0.0,0.14495634287499998,0.059379229874999995,0.144241465,0.059076417375,0.15586856562667942,-0.06972614027864023,-0.08527496584680677,-0.056492238471366064
50.0,1.0,0.2322498444384806,-0.14646135306151942,-0.0007531662264976366,0.37871119750000004,-0.004226886764795115,0.2322498444384806,0.05964096818848059,0.05538362293848058,0.08583394143848058,-0.14646135306151942,-0.05449701181151942,-0.0792215755615194,-0.08143617056151942,0.0,0.0,0.0,0.0,0.37871119750000004,0.11413798,0.13460519849999997,0.167270112,-0.046989929351000326,-0.12209100953887192,-0.16690079728612317,0.04963490218004871
50.0,2.0,0.09618892318848057,-0.0680850993115194,-9.629956726727418e-05,0.16427402249999998,0.011685178359421192,0.04524299318848059,0.021953381938480586,0.09618892318848057,0.05603606568848059,-0.03902593281151942,-0.03863912743651942,-0.0680850993115194,-0.05694250806151941,0.0,0.0,0.0,0.0,0.08426892600000001,0.060592509375000006,0.16427402249999998,0.11297857375,-0.024607501565743137,-0.07626671281029908,0.0793218155250919,0.05864804481292436
50.0,3.0,0.0962350844384806,-0.10011010306151942,0.0006425566923111308,0.19634518750000002,0.14882899507746541,0.0962350844384806,0.0642272456884806,0.0951371019384806,0.051253185688480585,-0.0647819968115194,-0.0804693243115194,-0.08494951181151941,-0.05116575181151941,0.0,0.0,0.0,0.0,0.16101708125,0.14469657,0.18008661375,0.1024189375,0.06814200969271053,0.14304487090481788,0.15913435491213318,-0.045821912582647
50.0,4.0,0.08689373443848059,-0.08860013306151941,0.0005715309907438901,0.1754938675,-0.020649888755235435,0.05785984568848058,0.08689373443848059,0.03159104681348058,0.08028398068848058,-0.05154965556151942,-0.08860013306151941,-0.044700183686519415,-0.04974573306151942,0.0,0.0,0.0,0.0,0.10940950125,0.1754938675,0.0762912305,0.13002971375,-0.09491881022830125,0.04756296318454718,0.042081844056547066,0.022149088204248296
50.0,5.0,0.12500394443848056,-0.1164179896865194,0.0013469936082595012,0.24142193412499996,0.07399466704325167,0.07772829068848057,0.057280761938480584,0.05943801956348059,0.12500394443848056,-0.1164179896865194,-0.07487826931151942,-0.06371298806151941,-0.07764337556151941,0.0,0.0,0.0,0.0,0.19414628037499998,0.13215903125,0.123151007625,0.20264731999999996,-0.09173494313623078,-0.14552074392026443,0.014107895035169384,0.15944024507487753
50.0,6.0,0.0872498319384806,-0.0859504493115194,0.0013503790879902124,0.17320028125,0.15999308389683187,0.0872498319384806,0.07525340318848057,0.08543921068848057,0.05156295318848058,-0.050497973061519416,-0.06207753397401942,-0.0859504493115194,-0.04887704306151941,0.0,0.0,0.0,0.0,0.137747805,0.1373309371625,0.17138965999999997,0.10043999625,0.07524984933242557,-0.11758294403452083,0.08197559419909459,-0.09181389797447834
